i,ii,iii,avr,avl,avf,v1,v2,v3,v4,v5,v6,vx,vy,vz
0.1855,0.1755,-0.01,-0.1805,0.0975,0.083,0.139,0.141,0.1025,0.211,0.1705,-0.055,-0.1495,-0.103,-0.32
0.1655,0.161,-0.0045,-0.163,0.085,0.0785,0.1375,0.138,0.0975,0.2065,0.1665,-0.0575,-0.1445,-0.0945,-0.3165
0.1695,0.169,-0.0005,-0.169,0.0845,0.0845,0.1395,0.144,0.103,0.215,0.1725,-0.0555,-0.1415,-0.0805,-0.3125
0.183,0.1865,0.0035,-0.1845,0.0895,0.095,0.1455,0.1545,0.1125,0.2225,0.1795,-0.046,-0.1365,-0.078,-0.311
0.191,0.197,0.006,-0.194,0.0925,0.1015,0.1545,0.1655,0.12,0.227,0.184,-0.0355,-0.1325,-0.0805,-0.3075
0.2295,0.216,-0.0135,-0.2225,0.121,0.1015,0.1595,0.173,0.1245,0.2325,0.1895,-0.033,-0.1275,-0.0745,-0.3115
0.239,0.22,-0.0195,-0.2295,0.129,0.1005,0.166,0.1785,0.1245,0.237,0.1895,-0.034,-0.1265,-0.0635,-0.3115
0.2415,0.2165,-0.025,-0.229,0.133,0.0955,0.1685,0.184,0.1275,0.2435,0.194,-0.031,-0.123,-0.068,-0.318
0.2385,0.2135,-0.0255,-0.226,0.1315,0.094,0.174,0.187,0.1325,0.244,0.1975,-0.0275,-0.122,-0.076,-0.329
0.216,0.2045,-0.0115,-0.2105,0.1135,0.097,0.18,0.19,0.134,0.241,0.197,-0.026,-0.1255,-0.081,-0.3335
0.2135,0.2025,-0.011,-0.208,0.1115,0.096,0.184,0.193,0.1385,0.245,0.2005,-0.0255,-0.1265,-0.0845,-0.334
0.215,0.203,-0.012,-0.209,0.113,0.096,0.184,0.193,0.139,0.2445,0.2005,-0.023,-0.1235,-0.086,-0.3345
0.212,0.199,-0.0125,-0.2055,0.112,0.0935,0.181,0.1955,0.138,0.2435,0.2005,-0.022,-0.1215,-0.0925,-0.3365
0.219,0.1925,-0.0265,-0.2055,0.1225,0.0835,0.176,0.192,0.1355,0.2425,0.197,-0.0255,-0.12,-0.093,-0.3395
0.2195,0.1855,-0.0335,-0.2025,0.1265,0.0765,0.171,0.186,0.1305,0.239,0.1925,-0.032,-0.119,-0.085,-0.3395
0.216,0.1825,-0.0335,-0.1995,0.1245,0.075,0.169,0.1865,0.1315,0.242,0.1935,-0.0345,-0.118,-0.0895,-0.34
0.2155,0.1945,-0.021,-0.205,0.118,0.087,0.1735,0.1955,0.1415,0.2535,0.204,-0.024,-0.113,-0.104,-0.3525
0.2185,0.2135,-0.005,-0.216,0.1115,0.1045,0.1815,0.206,0.1525,0.2645,0.215,-0.015,-0.1085,-0.0895,-0.35
0.2385,0.221,-0.018,-0.23,0.128,0.1015,0.1745,0.2035,0.1505,0.2645,0.211,-0.0165,-0.104,-0.0695,-0.3455
0.2505,0.219,-0.0315,-0.235,0.141,0.094,0.167,0.201,0.147,0.2565,0.2065,-0.021,-0.101,-0.0815,-0.3445
0.2655,0.2155,-0.0505,-0.2405,0.1575,0.0825,0.1645,0.202,0.1465,0.2565,0.208,-0.0205,-0.095,-0.0905,-0.3375
0.2665,0.206,-0.0605,-0.236,0.163,0.073,0.164,0.203,0.1475,0.2575,0.2045,-0.02,-0.0925,-0.0905,-0.3315
0.2495,0.1955,-0.054,-0.223,0.1515,0.071,0.1665,0.202,0.1465,0.2505,0.2,-0.022,-0.091,-0.0925,-0.3215
0.2485,0.201,-0.0475,-0.225,0.148,0.077,0.171,0.205,0.15,0.253,0.201,-0.0215,-0.092,-0.086,-0.318
0.239,0.197,-0.0415,-0.218,0.14,0.078,0.1695,0.206,0.15,0.2525,0.201,-0.023,-0.093,-0.093,-0.3175
0.233,0.1975,-0.0355,-0.2155,0.134,0.0815,0.17,0.2085,0.1515,0.254,0.2045,-0.0205,-0.0905,-0.0925,-0.3125
0.2325,0.208,-0.0245,-0.22,0.128,0.092,0.1785,0.2125,0.159,0.259,0.21,-0.0165,-0.0935,-0.0845,-0.316
0.2175,0.1955,-0.0215,-0.2065,0.119,0.087,0.182,0.209,0.153,0.2515,0.2035,-0.019,-0.0975,-0.0845,-0.3185
0.2265,0.1985,-0.0275,-0.2125,0.1265,0.086,0.18,0.2085,0.1505,0.245,0.202,-0.021,-0.0995,-0.0645,-0.3245
0.234,0.2035,-0.0305,-0.2185,0.1315,0.087,0.177,0.2085,0.155,0.2465,0.2005,-0.0245,-0.1015,-0.066,-0.3315
0.229,0.2065,-0.0225,-0.218,0.1255,0.0925,0.1805,0.21,0.1605,0.251,0.2025,-0.0225,-0.1045,-0.083,-0.3255
0.2235,0.207,-0.0165,-0.2155,0.12,0.0955,0.1785,0.212,0.1595,0.2515,0.2065,-0.0205,-0.104,-0.096,-0.322
0.2285,0.19,-0.0385,-0.209,0.133,0.076,0.1665,0.2085,0.1525,0.2435,0.197,-0.028,-0.1015,-0.1005,-0.32
0.2345,0.172,-0.0625,-0.203,0.1485,0.055,0.1475,0.1965,0.1405,0.2325,0.186,-0.0405,-0.1,-0.1045,-0.319
0.232,0.1795,-0.052,-0.2055,0.142,0.064,0.1445,0.2005,0.147,0.242,0.194,-0.0325,-0.098,-0.1115,-0.3185
0.2335,0.189,-0.045,-0.211,0.139,0.072,0.147,0.213,0.1595,0.253,0.2025,-0.021,-0.0925,-0.106,-0.3165
0.213,0.169,-0.044,-0.191,0.1285,0.0625,0.1375,0.207,0.1535,0.245,0.1935,-0.027,-0.089,-0.11,-0.319
0.2055,0.1685,-0.037,-0.1875,0.121,0.066,0.133,0.201,0.147,0.2385,0.1865,-0.0295,-0.0905,-0.08,-0.321
0.2175,0.1815,-0.0355,-0.1995,0.126,0.073,0.1355,0.206,0.1475,0.241,0.1895,-0.027,-0.0895,-0.0655,-0.318
0.2235,0.187,-0.037,-0.205,0.13,0.075,0.1385,0.2095,0.1515,0.244,0.191,-0.0235,-0.0845,-0.0835,-0.3165
0.2245,0.186,-0.0385,-0.2055,0.131,0.074,0.143,0.213,0.1545,0.247,0.1955,-0.018,-0.0815,-0.085,-0.3205
0.247,0.2035,-0.0435,-0.225,0.145,0.0805,0.1485,0.217,0.1605,0.2565,0.206,-0.0095,-0.0825,-0.0995,-0.319
0.2815,0.227,-0.0545,-0.254,0.1675,0.0865,0.1395,0.216,0.162,0.26,0.2075,-0.0055,-0.0795,-0.1045,-0.3055
0.2755,0.212,-0.0635,-0.2435,0.169,0.0745,0.124,0.205,0.1505,0.2495,0.1985,-0.015,-0.081,-0.0985,-0.2975
0.2595,0.1835,-0.076,-0.2215,0.1675,0.054,0.1065,0.185,0.135,0.236,0.1845,-0.0275,-0.085,-0.099,-0.293
0.241,0.1585,-0.0825,-0.2,0.1615,0.0385,0.0875,0.1635,0.115,0.2205,0.173,-0.0345,-0.086,-0.1205,-0.2815
0.2385,0.15,-0.0885,-0.194,0.163,0.031,0.0775,0.1435,0.097,0.2035,0.164,-0.041,-0.095,-0.1555,-0.27
0.245,0.148,-0.097,-0.1965,0.1705,0.026,0.0725,0.13,0.089,0.197,0.1595,-0.0415,-0.0995,-0.1545,-0.2675
0.2245,0.133,-0.0915,-0.179,0.158,0.021,0.07,0.1215,0.0845,0.195,0.159,-0.041,-0.1015,-0.144,-0.265
0.2115,0.121,-0.0905,-0.166,0.1505,0.0155,0.0695,0.1165,0.078,0.1895,0.154,-0.045,-0.106,-0.1555,-0.2565
0.2085,0.1115,-0.097,-0.16,0.1525,0.0075,0.0675,0.1085,0.068,0.1825,0.147,-0.05,-0.1075,-0.1655,-0.25
0.22,0.1195,-0.101,-0.1695,0.16,0.0095,0.0775,0.11,0.065,0.181,0.148,-0.0495,-0.1115,-0.174,-0.2505
0.2085,0.0965,-0.112,-0.1525,0.16,-0.0075,0.079,0.11,0.0545,0.173,0.141,-0.0535,-0.1075,-0.184,-0.2525
0.1985,0.076,-0.1225,-0.1375,0.16,-0.023,0.071,0.097,0.039,0.161,0.132,-0.06,-0.1065,-0.182,-0.247
0.2,0.0765,-0.1235,-0.138,0.1615,-0.0235,0.0715,0.0845,0.022,0.1495,0.1225,-0.068,-0.118,-0.189,-0.2395
0.1835,0.057,-0.1265,-0.1205,0.155,-0.0345,0.064,0.0655,0.0005,0.133,0.108,-0.0825,-0.1265,-0.1915,-0.2295
0.1835,0.0675,-0.116,-0.1255,0.1495,-0.024,0.066,0.0655,-0.0005,0.1355,0.1135,-0.0765,-0.125,-0.1675,-0.2375
0.1935,0.08,-0.1135,-0.1365,0.153,-0.0165,0.068,0.069,-0.0005,0.137,0.1145,-0.0755,-0.124,-0.163,-0.239
0.187,0.0705,-0.116,-0.129,0.1515,-0.0225,0.0605,0.064,-0.0065,0.1315,0.106,-0.085,-0.127,-0.1705,-0.2275
0.157,0.0615,-0.095,-0.1095,0.126,-0.0165,0.0625,0.0675,0.0,0.1385,0.1075,-0.084,-0.127,-0.1745,-0.2375
0.154,0.063,-0.091,-0.1085,0.122,-0.014,0.07,0.0735,0.0045,0.1415,0.1105,-0.0795,-0.125,-0.17,-0.2365
0.167,0.0595,-0.107,-0.1135,0.137,-0.0235,0.0675,0.0695,0.001,0.138,0.1065,-0.0795,-0.1215,-0.163,-0.2305
0.1695,0.06,-0.1095,-0.115,0.139,-0.024,0.0595,0.0635,-0.0025,0.133,0.1015,-0.083,-0.119,-0.1575,-0.2315
0.168,0.0645,-0.104,-0.1165,0.136,-0.0195,0.061,0.063,-0.0025,0.133,0.1005,-0.0825,-0.1215,-0.1545,-0.224
0.196,0.089,-0.107,-0.1425,0.1515,-0.009,0.0715,0.071,0.005,0.144,0.1075,-0.071,-0.1205,-0.1475,-0.222
0.222,0.117,-0.105,-0.1695,0.163,0.0065,0.081,0.083,0.014,0.157,0.122,-0.056,-0.115,-0.1415,-0.226
0.2365,0.129,-0.107,-0.183,0.1715,0.0115,0.0885,0.09,0.0185,0.1595,0.132,-0.045,-0.113,-0.154,-0.224
0.268,0.1545,-0.1135,-0.2115,0.1905,0.0205,0.1025,0.1015,0.0285,0.1705,0.146,-0.033,-0.1135,-0.1605,-0.227
0.2485,0.139,-0.1095,-0.194,0.179,0.015,0.105,0.1025,0.0265,0.173,0.148,-0.0345,-0.1155,-0.162,-0.2335
0.2155,0.096,-0.119,-0.156,0.167,-0.0115,0.093,0.088,0.008,0.1555,0.131,-0.051,-0.1195,-0.165,-0.2295
0.1975,0.0685,-0.129,-0.1335,0.163,-0.03,0.0805,0.071,-0.007,0.144,0.118,-0.0645,-0.1195,-0.1645,-0.2165
0.1745,0.0495,-0.1245,-0.112,0.1495,-0.0375,0.0745,0.0625,-0.016,0.1345,0.1105,-0.07,-0.1205,-0.1695,-0.2155
0.174,0.0455,-0.1285,-0.1095,0.151,-0.0415,0.0765,0.0645,-0.018,0.1325,0.11,-0.0705,-0.1225,-0.182,-0.224
0.1835,0.0475,-0.1365,-0.1155,0.1595,-0.0445,0.077,0.0645,-0.0215,0.1315,0.1085,-0.0725,-0.126,-0.182,-0.2155
0.197,0.0555,-0.1415,-0.126,0.1685,-0.0425,0.0785,0.064,-0.0225,0.1305,0.1065,-0.073,-0.13,-0.1925,-0.2215
0.2075,0.065,-0.1425,-0.1365,0.175,-0.0385,0.085,0.068,-0.017,0.134,0.1115,-0.067,-0.1305,-0.207,-0.233
0.217,0.082,-0.135,-0.1495,0.1755,-0.026,0.093,0.076,-0.0095,0.14,0.1165,-0.06,-0.1315,-0.2,-0.23
0.2295,0.098,-0.1315,-0.1635,0.18,-0.0165,0.0915,0.078,-0.0065,0.1435,0.1185,-0.058,-0.131,-0.19,-0.228
0.2275,0.104,-0.124,-0.166,0.1755,-0.0095,0.0915,0.08,-0.0035,0.1435,0.1195,-0.057,-0.131,-0.178,-0.23
0.209,0.092,-0.1165,-0.1505,0.1625,-0.012,0.089,0.076,-0.0065,0.1385,0.1125,-0.0645,-0.134,-0.172,-0.231
0.179,0.0615,-0.1175,-0.12,0.148,-0.0275,0.078,0.063,-0.019,0.126,0.098,-0.079,-0.138,-0.175,-0.23
0.1655,0.0535,-0.1115,-0.1095,0.1385,-0.029,0.0795,0.0655,-0.018,0.126,0.0985,-0.08,-0.141,-0.1785,-0.229
0.167,0.066,-0.1015,-0.1165,0.134,-0.0175,0.0845,0.0665,-0.016,0.128,0.102,-0.081,-0.1445,-0.1745,-0.2325
0.1885,0.083,-0.1055,-0.136,0.147,-0.011,0.084,0.064,-0.018,0.1265,0.1015,-0.087,-0.1485,-0.168,-0.236
0.2145,0.0955,-0.1185,-0.155,0.166,-0.011,0.0815,0.0635,-0.018,0.129,0.1035,-0.0885,-0.1475,-0.162,-0.2385
0.218,0.102,-0.1155,-0.16,0.1665,-0.0065,0.082,0.0635,-0.019,0.131,0.106,-0.086,-0.1475,-0.1425,-0.238
0.187,0.081,-0.106,-0.134,0.1465,-0.012,0.0785,0.059,-0.023,0.126,0.101,-0.09,-0.1475,-0.1425,-0.2325
0.1385,0.0525,-0.086,-0.0955,0.112,-0.0165,0.078,0.0585,-0.021,0.1265,0.1015,-0.0875,-0.146,-0.1695,-0.2405
0.128,0.058,-0.07,-0.093,0.099,-0.006,0.092,0.072,-0.0095,0.139,0.113,-0.0745,-0.144,-0.1855,-0.248
0.13,0.0555,-0.074,-0.0925,0.1015,-0.009,0.096,0.0745,-0.0075,0.1415,0.1145,-0.076,-0.145,-0.1825,-0.2535
0.1505,0.063,-0.0875,-0.1065,0.1185,-0.012,0.097,0.0775,-0.002,0.144,0.1165,-0.076,-0.144,-0.171,-0.257
0.179,0.0775,-0.1015,-0.128,0.14,-0.0115,0.1,0.08,0.0065,0.1475,0.1195,-0.0725,-0.142,-0.1745,-0.256
0.1725,0.07,-0.1025,-0.121,0.137,-0.016,0.101,0.0775,0.008,0.146,0.116,-0.075,-0.143,-0.1825,-0.256
0.1585,0.0605,-0.098,-0.1095,0.128,-0.0185,0.1005,0.0735,0.003,0.1415,0.1105,-0.078,-0.1445,-0.19,-0.257
0.1585,0.059,-0.0995,-0.109,0.129,-0.02,0.098,0.067,-0.002,0.1365,0.107,-0.082,-0.1475,-0.1895,-0.2535
0.1715,0.064,-0.1075,-0.1175,0.139,-0.0215,0.095,0.062,-0.0065,0.1345,0.1035,-0.089,-0.154,-0.1835,-0.2505
0.1715,0.063,-0.1085,-0.117,0.1395,-0.0225,0.0945,0.0535,-0.013,0.1335,0.102,-0.0955,-0.16,-0.177,-0.253
0.1645,0.067,-0.098,-0.116,0.131,-0.015,0.098,0.0535,-0.01,0.135,0.1025,-0.097,-0.1625,-0.1685,-0.2555
0.154,0.063,-0.0905,-0.1085,0.122,-0.0135,0.101,0.0545,-0.011,0.132,0.0975,-0.1025,-0.169,-0.1685,-0.257
0.1285,0.0485,-0.08,-0.0885,0.104,-0.0155,0.102,0.0515,-0.014,0.127,0.0905,-0.109,-0.1735,-0.1755,-0.255
0.123,0.051,-0.0725,-0.087,0.0975,-0.0105,0.106,0.056,-0.012,0.1265,0.089,-0.107,-0.173,-0.177,-0.2555
0.1165,0.045,-0.0715,-0.081,0.094,-0.013,0.1125,0.0605,-0.01,0.1275,0.0895,-0.1035,-0.1765,-0.188,-0.2515
0.117,0.045,-0.072,-0.081,0.094,-0.013,0.1135,0.062,-0.0095,0.127,0.088,-0.104,-0.176,-0.191,-0.2465
0.131,0.061,-0.07,-0.096,0.1,-0.004,0.1145,0.0635,-0.0095,0.1265,0.0875,-0.1065,-0.1775,-0.1735,-0.2455
0.1435,0.0695,-0.074,-0.1065,0.1085,-0.002,0.115,0.063,-0.0105,0.1245,0.085,-0.1075,-0.181,-0.1735,-0.2465
0.14,0.0695,-0.0705,-0.105,0.1055,0.0,0.1135,0.062,-0.0125,0.1215,0.0845,-0.108,-0.181,-0.1815,-0.2435
0.109,0.0485,-0.0605,-0.079,0.0845,-0.006,0.109,0.0585,-0.0165,0.1205,0.0825,-0.113,-0.1815,-0.1695,-0.2465
0.0855,0.022,-0.0635,-0.0535,0.074,-0.0205,0.105,0.054,-0.0175,0.118,0.0795,-0.118,-0.1815,-0.1615,-0.2445
0.083,0.0165,-0.0665,-0.05,0.0745,-0.025,0.1055,0.0525,-0.02,0.115,0.081,-0.1185,-0.183,-0.155,-0.241
0.111,0.0295,-0.0815,-0.0705,0.096,-0.0255,0.104,0.05,-0.022,0.1125,0.081,-0.119,-0.1845,-0.145,-0.2425
0.1305,0.044,-0.087,-0.087,0.1085,-0.021,0.107,0.054,-0.0165,0.118,0.086,-0.114,-0.183,-0.1585,-0.2395
0.137,0.068,-0.069,-0.1025,0.103,-0.0005,0.1185,0.0675,-0.003,0.1315,0.0985,-0.1005,-0.1805,-0.1655,-0.2455
0.1405,0.0855,-0.056,-0.113,0.098,0.015,0.128,0.0775,0.0075,0.142,0.1095,-0.091,-0.1815,-0.179,-0.2515
0.1445,0.078,-0.067,-0.111,0.1055,0.006,0.12,0.0725,0.004,0.1395,0.107,-0.0935,-0.1795,-0.176,-0.2545
0.1515,0.069,-0.0825,-0.11,0.1165,-0.0065,0.114,0.0605,-0.0035,0.131,0.098,-0.1025,-0.178,-0.1725,-0.2595
0.146,0.064,-0.082,-0.105,0.1135,-0.0085,0.1155,0.0615,-0.0025,0.135,0.0985,-0.1045,-0.1775,-0.184,-0.2645
0.142,0.069,-0.073,-0.1055,0.1075,-0.002,0.1125,0.064,0.0005,0.1375,0.102,-0.102,-0.175,-0.185,-0.2645
0.13,0.067,-0.063,-0.0985,0.096,0.0025,0.111,0.06,-0.006,0.1295,0.0955,-0.1065,-0.1775,-0.183,-0.2605
0.1275,0.0635,-0.064,-0.0955,0.0955,0.0,0.106,0.0545,-0.0135,0.1265,0.083,-0.1085,-0.175,-0.1715,-0.2635
0.1245,0.061,-0.0635,-0.093,0.094,-0.001,0.1025,0.0515,-0.014,0.1275,0.072,-0.1115,-0.1745,-0.172,-0.2575
0.1155,0.054,-0.0615,-0.085,0.0885,-0.0035,0.1005,0.0545,-0.01,0.127,0.073,-0.1155,-0.175,-0.167,-0.248
0.1235,0.047,-0.077,-0.085,0.1,-0.015,0.0985,0.053,-0.0095,0.124,0.076,-0.1175,-0.1715,-0.169,-0.263
0.1405,0.0495,-0.091,-0.095,0.1155,-0.0205,0.0995,0.054,-0.01,0.1215,0.075,-0.119,-0.173,-0.1645,-0.264
0.1475,0.062,-0.0855,-0.1045,0.116,-0.0115,0.104,0.055,-0.0115,0.1195,0.08,-0.119,-0.1765,-0.1485,-0.255
0.1235,0.041,-0.0825,-0.082,0.1025,-0.0205,0.1,0.048,-0.019,0.112,0.079,-0.127,-0.1815,-0.1645,-0.2555
0.115,0.031,-0.084,-0.073,0.099,-0.026,0.099,0.05,-0.017,0.1115,0.079,-0.1285,-0.183,-0.171,-0.256
0.118,0.032,-0.086,-0.075,0.1015,-0.0265,0.099,0.0475,-0.0165,0.1115,0.0805,-0.131,-0.1865,-0.164,-0.257
0.1335,0.046,-0.0875,-0.0895,0.1105,-0.0205,0.1035,0.0545,-0.009,0.12,0.091,-0.124,-0.1875,-0.166,-0.2565
0.162,0.072,-0.0895,-0.117,0.1255,-0.0085,0.112,0.0675,0.004,0.135,0.1035,-0.1095,-0.1835,-0.1695,-0.2575
0.139,0.048,-0.091,-0.0935,0.115,-0.021,0.106,0.0585,-0.002,0.127,0.096,-0.12,-0.1865,-0.1775,-0.2525
0.0965,0.012,-0.0845,-0.054,0.09,-0.036,0.097,0.049,-0.013,0.1175,0.087,-0.132,-0.1895,-0.191,-0.2585
0.0745,-0.0025,-0.0765,-0.036,0.0755,-0.039,0.092,0.0445,-0.0185,0.112,0.0805,-0.135,-0.1905,-0.1805,-0.265
0.083,0.009,-0.074,-0.046,0.078,-0.032,0.0975,0.049,-0.011,0.116,0.084,-0.128,-0.189,-0.1725,-0.264
0.098,0.028,-0.07,-0.063,0.0835,-0.021,0.1055,0.057,-0.001,0.1245,0.091,-0.119,-0.1895,-0.177,-0.266
0.11,0.0345,-0.075,-0.072,0.092,-0.02,0.104,0.055,-0.0025,0.1225,0.089,-0.1235,-0.194,-0.171,-0.266
0.1335,0.049,-0.0845,-0.091,0.109,-0.018,0.105,0.058,0.0035,0.1275,0.0925,-0.122,-0.1905,-0.1865,-0.272
0.143,0.064,-0.079,-0.1035,0.111,-0.0075,0.111,0.0665,0.015,0.1345,0.0985,-0.1145,-0.1875,-0.1875,-0.278
0.1345,0.0585,-0.076,-0.0965,0.105,-0.0085,0.1085,0.062,0.0125,0.128,0.091,-0.1175,-0.1885,-0.1715,-0.2755
0.11,0.044,-0.0665,-0.077,0.088,-0.011,0.1065,0.059,0.011,0.123,0.0855,-0.121,-0.189,-0.163,-0.275
0.0975,0.0475,-0.05,-0.0725,0.0735,-0.001,0.115,0.0685,0.0205,0.13,0.0935,-0.113,-0.187,-0.1575,-0.272
0.0965,0.0515,-0.0445,-0.074,0.0705,0.0035,0.117,0.068,0.0205,0.1305,0.094,-0.1125,-0.188,-0.1635,-0.267
0.096,0.04,-0.056,-0.068,0.076,-0.008,0.114,0.0625,0.0175,0.1245,0.0875,-0.118,-0.1895,-0.173,-0.2655
0.1045,0.0375,-0.0665,-0.071,0.085,-0.014,0.112,0.061,0.0165,0.124,0.0855,-0.1175,-0.1865,-0.1795,-0.261
0.101,0.038,-0.063,-0.0695,0.0815,-0.0125,0.1085,0.0575,0.0105,0.1215,0.084,-0.1195,-0.1855,-0.174,-0.2585
0.0985,0.0335,-0.065,-0.066,0.082,-0.016,0.108,0.059,0.0095,0.1215,0.0855,-0.12,-0.183,-0.1625,-0.26
0.102,0.038,-0.064,-0.07,0.083,-0.0125,0.111,0.062,0.012,0.125,0.0905,-0.1175,-0.182,-0.1635,-0.262
0.1035,0.042,-0.062,-0.073,0.0825,-0.01,0.1145,0.0635,0.016,0.1295,0.0955,-0.1145,-0.183,-0.1685,-0.2585
0.126,0.0505,-0.075,-0.0885,0.1005,-0.012,0.1185,0.066,0.0225,0.134,0.0985,-0.1075,-0.1825,-0.168,-0.258
0.146,0.0665,-0.0795,-0.1065,0.1125,-0.006,0.127,0.0735,0.0295,0.1435,0.104,-0.0995,-0.182,-0.1775,-0.261
0.151,0.074,-0.077,-0.1125,0.114,-0.0015,0.134,0.0795,0.036,0.146,0.1085,-0.0945,-0.1835,-0.1765,-0.2625
0.1745,0.0945,-0.0795,-0.1345,0.1265,0.008,0.1385,0.083,0.0435,0.148,0.114,-0.09,-0.183,-0.181,-0.267
0.1585,0.0905,-0.068,-0.1245,0.113,0.0115,0.1365,0.082,0.0435,0.1455,0.111,-0.0925,-0.183,-0.187,-0.2685
0.1255,0.0525,-0.073,-0.089,0.099,-0.01,0.1275,0.07,0.0315,0.13,0.097,-0.1075,-0.186,-0.189,-0.272
0.1355,0.042,-0.0935,-0.0885,0.1145,-0.0255,0.1165,0.063,0.0245,0.1265,0.093,-0.1155,-0.184,-0.195,-0.278
0.1175,0.029,-0.0885,-0.073,0.1025,-0.0295,0.1085,0.06,0.019,0.124,0.0905,-0.118,-0.182,-0.183,-0.2815
0.088,0.0075,-0.0805,-0.048,0.084,-0.0365,0.107,0.055,0.0115,0.1185,0.085,-0.1215,-0.1845,-0.186,-0.282
0.0945,0.0145,-0.08,-0.0545,0.087,-0.0325,0.1095,0.0565,0.0095,0.1175,0.084,-0.122,-0.1855,-0.191,-0.2765
0.097,0.0265,-0.0705,-0.0615,0.0835,-0.0215,0.111,0.0585,0.011,0.118,0.0845,-0.1195,-0.184,-0.1835,-0.274
0.097,0.0255,-0.0715,-0.0615,0.084,-0.023,0.1025,0.0495,0.004,0.112,0.0785,-0.1255,-0.1835,-0.1765,-0.278
0.1015,0.0315,-0.07,-0.0665,0.0855,-0.019,0.103,0.051,0.004,0.1105,0.0785,-0.1235,-0.182,-0.171,-0.2825
0.115,0.0555,-0.0595,-0.0855,0.087,-0.002,0.114,0.0635,0.0165,0.122,0.0895,-0.112,-0.1815,-0.177,-0.286
0.113,0.056,-0.0575,-0.0845,0.085,-0.0005,0.116,0.0655,0.019,0.124,0.0895,-0.113,-0.1845,-0.1785,-0.286
0.11,0.047,-0.063,-0.0785,0.0865,-0.0075,0.1135,0.0635,0.0175,0.122,0.0865,-0.119,-0.1835,-0.178,-0.2765
0.1255,0.0545,-0.071,-0.09,0.098,-0.008,0.1095,0.059,0.0135,0.1185,0.083,-0.1235,-0.1825,-0.164,-0.279
0.1205,0.054,-0.0665,-0.0875,0.0935,-0.006,0.1075,0.06,0.013,0.119,0.0815,-0.1255,-0.18,-0.1445,-0.2805
0.1085,0.058,-0.0505,-0.083,0.079,0.004,0.115,0.0685,0.0195,0.129,0.089,-0.118,-0.179,-0.1495,-0.2745
0.102,0.0585,-0.044,-0.0805,0.0725,0.0075,0.1175,0.0725,0.023,0.1305,0.093,-0.1125,-0.1765,-0.156,-0.277
0.094,0.04,-0.054,-0.067,0.074,-0.0065,0.1125,0.069,0.0205,0.123,0.0925,-0.1155,-0.1735,-0.161,-0.278
0.097,0.034,-0.0625,-0.066,0.0795,-0.014,0.1125,0.07,0.023,0.123,0.091,-0.1165,-0.1745,-0.164,-0.2795
0.1115,0.05,-0.0615,-0.0805,0.0865,-0.0055,0.124,0.0845,0.0345,0.135,0.099,-0.112,-0.1785,-0.175,-0.278
0.1215,0.0565,-0.065,-0.089,0.093,-0.004,0.131,0.096,0.042,0.1395,0.1015,-0.111,-0.1825,-0.187,-0.285
0.113,0.048,-0.065,-0.0805,0.0885,-0.0085,0.131,0.1105,0.05,0.1445,0.1005,-0.112,-0.1795,-0.189,-0.2945
0.115,0.0475,-0.068,-0.081,0.091,-0.01,0.135,0.124,0.061,0.1535,0.105,-0.111,-0.178,-0.188,-0.301
0.135,0.0555,-0.0795,-0.0955,0.107,-0.012,0.136,0.142,0.07,0.1595,0.108,-0.1115,-0.1765,-0.172,-0.3155
0.116,0.0505,-0.0655,-0.0835,0.0905,-0.0075,0.139,0.152,0.0735,0.1595,0.1065,-0.113,-0.1755,-0.1675,-0.3245
0.1095,0.0615,-0.048,-0.0855,0.0785,0.007,0.144,0.153,0.077,0.156,0.1065,-0.109,-0.1775,-0.1675,-0.3235
0.114,0.0795,-0.0345,-0.097,0.074,0.023,0.1425,0.166,0.0885,0.169,0.119,-0.101,-0.172,-0.156,-0.324
0.1085,0.0855,-0.023,-0.0965,0.0655,0.0315,0.136,0.17,0.0935,0.1795,0.128,-0.0965,-0.1645,-0.1435,-0.326
0.119,0.1015,-0.0175,-0.1105,0.068,0.042,0.1335,0.174,0.096,0.185,0.139,-0.0885,-0.157,-0.143,-0.325
0.125,0.1125,-0.0125,-0.119,0.0685,0.0505,0.1305,0.174,0.102,0.1925,0.149,-0.0805,-0.1485,-0.125,-0.328
0.115,0.112,-0.0035,-0.1135,0.059,0.0545,0.1265,0.1785,0.108,0.199,0.1605,-0.0745,-0.1415,-0.1055,-0.335
0.099,0.1135,0.0145,-0.106,0.042,0.0645,0.1225,0.176,0.112,0.214,0.18,-0.064,-0.135,-0.108,-0.3385
0.1035,0.1225,0.019,-0.113,0.042,0.071,0.1095,0.1455,0.1075,0.222,0.192,-0.055,-0.1265,-0.094,-0.335
0.1255,0.133,0.0075,-0.1295,0.0585,0.0705,0.0935,0.1185,0.0955,0.228,0.205,-0.0445,-0.113,-0.08,-0.33
0.141,0.1475,0.0065,-0.144,0.067,0.077,0.076,0.0875,0.0875,0.241,0.2245,-0.033,-0.0985,-0.074,-0.3325
0.125,0.154,0.029,-0.1395,0.048,0.092,0.0565,0.0375,0.0695,0.252,0.2475,-0.0215,-0.0865,-0.0645,-0.3305
0.121,0.1735,0.053,-0.147,0.034,0.1135,0.0395,-0.0145,0.0485,0.265,0.2815,0.0065,-0.067,-0.051,-0.321
0.1405,0.2035,0.063,-0.172,0.0385,0.1335,0.003,-0.0905,0.021,0.2825,0.3265,0.04,-0.0395,-0.0345,-0.319
0.1285,0.1965,0.068,-0.1625,0.03,0.1325,-0.043,-0.174,-0.009,0.3045,0.369,0.063,-0.0065,-0.0195,-0.3175
0.134,0.2105,0.0765,-0.1725,0.0285,0.1435,-0.0735,-0.243,-0.0255,0.342,0.429,0.101,0.0315,-0.015,-0.3195
0.189,0.258,0.069,-0.2235,0.06,0.1635,-0.108,-0.3145,-0.046,0.3875,0.502,0.1505,0.076,-0.0115,-0.326
0.241,0.2835,0.042,-0.2625,0.099,0.163,-0.153,-0.3885,-0.0785,0.424,0.573,0.201,0.1255,-0.0075,-0.306
0.2805,0.2995,0.019,-0.29,0.1305,0.1595,-0.201,-0.4595,-0.1225,0.456,0.6495,0.2575,0.1775,-0.015,-0.27
0.3415,0.328,-0.0135,-0.3345,0.177,0.1575,-0.2405,-0.52,-0.181,0.4785,0.7295,0.322,0.236,-0.034,-0.2305
0.3935,0.349,-0.045,-0.3715,0.219,0.1525,-0.29,-0.6055,-0.2795,0.472,0.7915,0.383,0.292,-0.049,-0.1745
0.406,0.324,-0.082,-0.365,0.244,0.121,-0.3625,-0.7125,-0.402,0.446,0.8345,0.4315,0.348,-0.0595,-0.102
0.399,0.2805,-0.1185,-0.3395,0.2585,0.081,-0.4425,-0.827,-0.5355,0.414,0.8775,0.4755,0.4055,-0.0765,-0.02
0.4045,0.2495,-0.155,-0.327,0.2795,0.0475,-0.5085,-0.922,-0.654,0.3955,0.928,0.5225,0.462,-0.0925,0.0495
0.4515,0.2455,-0.206,-0.3485,0.3285,0.02,-0.565,-0.975,-0.736,0.405,1.0035,0.5895,0.535,-0.1165,0.1085
0.507,0.2495,-0.2575,-0.3785,0.3825,-0.0035,-0.624,-1.0245,-0.8045,0.4205,1.0845,0.6615,0.615,-0.124,0.164
0.5395,0.2235,-0.3155,-0.3815,0.427,-0.046,-0.6825,-1.079,-0.87,0.427,1.146,0.7195,0.687,-0.128,0.2195
0.5545,0.213,-0.3415,-0.3835,0.4475,-0.064,-0.738,-1.159,-0.944,0.437,1.2135,0.781,0.75,-0.137,0.2665
0.587,0.237,-0.35,-0.412,0.468,-0.0565,-0.7915,-1.253,-1.016,0.469,1.305,0.86,0.823,-0.132,0.301
0.6305,0.254,-0.3765,-0.442,0.503,-0.061,-0.851,-1.348,-1.0735,0.519,1.406,0.941,0.9025,-0.13,0.3315
0.6725,0.271,-0.402,-0.472,0.537,-0.065,-0.9115,-1.442,-1.122,0.582,1.521,1.026,0.9915,-0.119,0.355
0.711,0.27,-0.441,-0.4905,0.5755,-0.085,-0.98,-1.5295,-1.1675,0.6435,1.6325,1.1135,1.087,-0.1175,0.387
0.7475,0.26,-0.4875,-0.5035,0.6175,-0.1135,-1.0515,-1.613,-1.194,0.7085,1.7385,1.202,1.181,-0.133,0.419
0.7965,0.252,-0.544,-0.524,0.67,-0.146,-1.1095,-1.6825,-1.2095,0.7855,1.8455,1.292,1.2735,-0.15,0.445
0.839,0.224,-0.615,-0.5315,0.7265,-0.195,-1.1645,-1.746,-1.2305,0.8415,1.9235,1.364,1.355,-0.172,0.4725
0.898,0.1985,-0.699,-0.548,0.7985,-0.25,-1.217,-1.809,-1.259,0.885,1.987,1.43,1.432,-0.2085,0.516
0.9735,0.163,-0.81,-0.568,0.8915,-0.3235,-1.2465,-1.859,-1.3,0.9055,2.0255,1.494,1.4975,-0.273,0.5745
1.0275,0.1145,-0.9125,-0.571,0.97,-0.3985,-1.283,-1.9035,-1.3265,0.918,2.036,1.543,1.5565,-0.3285,0.626
1.067,0.0265,-1.0405,-0.547,1.0535,-0.5065,-1.313,-1.9235,-1.334,0.9055,1.961,1.5495,1.5815,-0.3925,0.68
1.1,-0.103,-1.203,-0.4985,1.151,-0.6525,-1.311,-1.889,-1.3495,0.805,1.759,1.5155,1.558,-0.5105,0.7585
1.1555,-0.224,-1.3785,-0.466,1.267,-0.801,-1.3035,-1.8175,-1.3625,0.6635,1.505,1.4635,1.5155,-0.6445,0.847
1.236,-0.2985,-1.534,-0.469,1.385,-0.9165,-1.2905,-1.7335,-1.3525,0.549,1.2995,1.4355,1.4875,-0.7395,0.9055
1.2885,-0.347,-1.635,-0.471,1.462,-0.991,-1.278,-1.6645,-1.345,0.4585,1.1505,1.415,1.469,-0.803,0.947
1.319,-0.4055,-1.724,-0.457,1.5215,-1.0645,-1.259,-1.6185,-1.369,0.3385,0.994,1.367,1.4305,-0.854,0.9875
1.3425,-0.44,-1.782,-0.451,1.562,-1.111,-1.23,-1.565,-1.383,0.2145,0.847,1.3215,1.386,-0.875,1.016
1.326,-0.5,-1.826,-0.413,1.576,-1.163,-1.211,-1.5265,-1.417,0.048,0.653,1.2415,1.3135,-0.893,1.0545
1.3,-0.579,-1.8785,-0.3605,1.5895,-1.2285,-1.2155,-1.508,-1.4665,-0.1265,0.475,1.17,1.2545,-0.93,1.0965
1.3345,-0.594,-1.9285,-0.3705,1.6315,-1.261,-1.211,-1.473,-1.478,-0.25,0.3535,1.1335,1.215,-0.95,1.126
1.3715,-0.605,-1.976,-0.3835,1.6735,-1.2905,-1.197,-1.4275,-1.498,-0.413,0.1975,1.081,1.1615,-0.95,1.157
1.362,-0.641,-2.0025,-0.3605,1.6825,-1.322,-1.1815,-1.385,-1.5315,-0.5985,0.025,1.018,1.099,-0.9745,1.189
1.355,-0.6635,-2.018,-0.3455,1.6865,-1.341,-1.1605,-1.363,-1.5815,-0.803,-0.1755,0.926,1.0055,-0.9965,1.224
1.385,-0.6615,-2.0465,-0.3615,1.7155,-1.354,-1.1425,-1.3275,-1.6155,-0.993,-0.3585,0.8335,0.9165,-0.9905,1.259
1.409,-0.6505,-2.059,-0.3795,1.734,-1.3545,-1.111,-1.2715,-1.6105,-1.11,-0.487,0.7615,0.838,-0.9985,1.2605
1.389,-0.658,-2.047,-0.3655,1.718,-1.3525,-1.0725,-1.209,-1.5805,-1.1635,-0.5685,0.695,0.773,-1.009,1.2345
1.369,-0.66,-2.0285,-0.354,1.6985,-1.3445,-1.0325,-1.131,-1.5155,-1.145,-0.594,0.6425,0.7305,-1.007,1.2045
1.3415,-0.663,-2.0045,-0.339,1.673,-1.3335,-0.9975,-1.0695,-1.457,-1.1095,-0.6055,0.593,0.6935,-0.995,1.1655
1.289,-0.683,-1.9715,-0.303,1.63,-1.327,-0.9815,-1.0305,-1.4165,-1.0915,-0.629,0.5325,0.6545,-0.961,1.1255
1.2655,-0.6625,-1.927,-0.3015,1.5965,-1.295,-0.964,-0.9895,-1.3625,-1.0585,-0.632,0.485,0.618,-0.9285,1.0765
1.2655,-0.6285,-1.893,-0.3185,1.579,-1.261,-0.924,-0.9295,-1.2875,-1.0015,-0.616,0.4495,0.584,-0.9125,1.022
1.249,-0.61,-1.8585,-0.3195,1.5535,-1.234,-0.881,-0.868,-1.22,-0.951,-0.609,0.403,0.543,-0.892,0.9695
1.2305,-0.58,-1.81,-0.325,1.52,-1.195,-0.832,-0.807,-1.148,-0.9,-0.597,0.357,0.4995,-0.8745,0.914
1.225,-0.5475,-1.772,-0.339,1.4985,-1.1595,-0.7815,-0.735,-1.067,-0.84,-0.5765,0.319,0.461,-0.8645,0.86
1.2105,-0.528,-1.7385,-0.3415,1.4745,-1.1335,-0.7425,-0.6805,-1.0125,-0.8015,-0.564,0.2865,0.4325,-0.8565,0.8155
1.171,-0.5365,-1.707,-0.3175,1.439,-1.122,-0.7125,-0.6455,-0.975,-0.784,-0.5735,0.2375,0.3975,-0.8345,0.7765
1.1565,-0.537,-1.6925,-0.31,1.4245,-1.1145,-0.68,-0.6125,-0.9435,-0.775,-0.5895,0.179,0.3545,-0.816,0.742
1.1205,-0.5345,-1.654,-0.293,1.387,-1.094,-0.64,-0.5725,-0.903,-0.749,-0.5865,0.134,0.3185,-0.8035,0.709
1.061,-0.5315,-1.5925,-0.265,1.327,-1.062,-0.6,-0.5305,-0.8525,-0.709,-0.572,0.099,0.2845,-0.7955,0.6665
1.044,-0.5055,-1.549,-0.2695,1.2965,-1.0275,-0.557,-0.4795,-0.803,-0.6735,-0.5575,0.0705,0.2525,-0.788,0.6285
1.035,-0.488,-1.5225,-0.274,1.279,-1.0055,-0.5195,-0.4325,-0.762,-0.649,-0.553,0.0345,0.2195,-0.7615,0.5955
1.0075,-0.4835,-1.4905,-0.262,1.249,-0.987,-0.4785,-0.3895,-0.726,-0.6275,-0.548,-0.001,0.186,-0.754,0.5695
0.9665,-0.4795,-1.4455,-0.2435,1.206,-0.9625,-0.434,-0.34,-0.6805,-0.592,-0.532,-0.0245,0.1595,-0.747,0.5415
0.9305,-0.486,-1.416,-0.222,1.173,-0.951,-0.403,-0.3015,-0.6455,-0.566,-0.519,-0.0505,0.141,-0.729,0.5045
0.89,-0.488,-1.3775,-0.201,1.134,-0.933,-0.373,-0.267,-0.6095,-0.538,-0.51,-0.07,0.123,-0.71,0.4755
0.8515,-0.483,-1.3345,-0.184,1.093,-0.909,-0.3395,-0.241,-0.575,-0.5105,-0.5055,-0.0845,0.0995,-0.706,0.45
0.803,-0.4945,-1.297,-0.154,1.05,-0.8955,-0.3095,-0.2245,-0.5545,-0.499,-0.505,-0.111,0.072,-0.713,0.422
0.759,-0.493,-1.2525,-0.133,1.0055,-0.8725,-0.2775,-0.2,-0.527,-0.477,-0.488,-0.1275,0.0515,-0.7085,0.3895
0.7565,-0.474,-1.231,-0.141,0.9935,-0.8525,-0.2485,-0.174,-0.499,-0.4585,-0.469,-0.1355,0.035,-0.7055,0.3585
0.7545,-0.444,-1.198,-0.155,0.976,-0.8205,-0.2205,-0.1475,-0.469,-0.435,-0.4455,-0.1465,0.0165,-0.6815,0.332
0.716,-0.437,-1.153,-0.1395,0.9345,-0.7945,-0.1965,-0.124,-0.4395,-0.406,-0.419,-0.16,-0.0035,-0.661,0.3005
0.6675,-0.4435,-1.111,-0.112,0.889,-0.777,-0.1745,-0.1075,-0.4155,-0.387,-0.404,-0.179,-0.025,-0.6485,0.265
0.633,-0.422,-1.0545,-0.1055,0.8435,-0.738,-0.1455,-0.0855,-0.385,-0.3565,-0.377,-0.1845,-0.043,-0.6225,0.2305
0.5855,-0.4065,-0.992,-0.0895,0.7885,-0.699,-0.116,-0.0655,-0.358,-0.331,-0.3585,-0.1935,-0.065,-0.6085,0.2005
0.56,-0.379,-0.939,-0.0905,0.7495,-0.6585,-0.0905,-0.0455,-0.3285,-0.3065,-0.3445,-0.2015,-0.084,-0.587,0.171
0.531,-0.3575,-0.889,-0.087,0.71,-0.623,-0.076,-0.034,-0.3065,-0.2845,-0.329,-0.209,-0.098,-0.5575,0.141
0.479,-0.3425,-0.8215,-0.068,0.65,-0.582,-0.0585,-0.0295,-0.2885,-0.2665,-0.3165,-0.216,-0.113,-0.5415,0.1135
0.4585,-0.299,-0.758,-0.0795,0.608,-0.5285,-0.0285,-0.0145,-0.258,-0.2425,-0.2905,-0.21,-0.129,-0.5205,0.089
0.4265,-0.2725,-0.699,-0.077,0.5625,-0.4855,-0.0035,0.0045,-0.2265,-0.215,-0.2675,-0.2105,-0.1445,-0.4805,0.0665
0.394,-0.251,-0.645,-0.0715,0.5195,-0.4475,0.0175,0.02,-0.201,-0.186,-0.2455,-0.2105,-0.157,-0.4465,0.04
0.374,-0.224,-0.598,-0.075,0.486,-0.4105,0.037,0.0275,-0.1805,-0.1675,-0.2285,-0.2155,-0.1705,-0.4275,0.0175
0.344,-0.204,-0.5485,-0.07,0.446,-0.376,0.052,0.04,-0.1565,-0.143,-0.2115,-0.218,-0.183,-0.419,-0.002
0.3415,-0.175,-0.5165,-0.0835,0.429,-0.3455,0.0695,0.058,-0.128,-0.1165,-0.1885,-0.215,-0.1915,-0.4025,-0.03
0.3415,-0.142,-0.4835,-0.1,0.4125,-0.3125,0.085,0.0735,-0.105,-0.0985,-0.171,-0.2145,-0.1975,-0.382,-0.055
0.3095,-0.1305,-0.4395,-0.0895,0.3745,-0.2845,0.0995,0.0915,-0.081,-0.074,-0.1515,-0.21,-0.2005,-0.376,-0.0795
0.258,-0.1475,-0.405,-0.0555,0.3315,-0.276,0.109,0.1045,-0.0605,-0.0545,-0.1365,-0.2155,-0.2055,-0.3615,-0.1055
0.215,-0.1515,-0.3665,-0.032,0.2905,-0.259,0.122,0.119,-0.041,-0.0345,-0.1225,-0.223,-0.2155,-0.338,-0.131
0.1975,-0.134,-0.331,-0.0315,0.264,-0.2325,0.1395,0.1365,-0.02,-0.0125,-0.1055,-0.2225,-0.2225,-0.3155,-0.1485
0.173,-0.1255,-0.2985,-0.0235,0.2355,-0.212,0.1505,0.1455,-0.0065,0.003,-0.096,-0.2255,-0.2315,-0.307,-0.161
0.146,-0.126,-0.2715,-0.01,0.2085,-0.1985,0.1545,0.149,0.0005,0.0125,-0.0895,-0.2325,-0.2395,-0.3,-0.181
0.1335,-0.123,-0.2565,-0.0055,0.1945,-0.1895,0.156,0.1535,0.008,0.022,-0.0805,-0.235,-0.242,-0.2785,-0.1965
0.104,-0.1205,-0.2245,0.008,0.164,-0.1725,0.168,0.1675,0.028,0.0425,-0.066,-0.2325,-0.2475,-0.272,-0.2135
0.084,-0.114,-0.198,0.015,0.141,-0.156,0.1795,0.1825,0.05,0.0625,-0.0525,-0.2305,-0.2505,-0.2755,-0.235
0.0865,-0.092,-0.1785,0.0025,0.1325,-0.135,0.194,0.1975,0.0705,0.0785,-0.039,-0.2215,-0.2515,-0.2595,-0.2505
0.077,-0.08,-0.157,0.0015,0.117,-0.1185,0.2,0.2065,0.08,0.0865,-0.0305,-0.2155,-0.2515,-0.256,-0.26
0.0675,-0.0755,-0.143,0.004,0.105,-0.109,0.199,0.2065,0.0805,0.0865,-0.0305,-0.217,-0.2525,-0.2475,-0.266
0.097,-0.047,-0.144,-0.025,0.12,-0.095,0.206,0.21,0.0865,0.0935,-0.0265,-0.215,-0.2555,-0.226,-0.273
0.121,-0.0215,-0.1425,-0.05,0.1315,-0.0815,0.208,0.212,0.091,0.099,-0.021,-0.2115,-0.2555,-0.225,-0.276
0.1335,0.0,-0.1335,-0.067,0.133,-0.0665,0.212,0.2205,0.1,0.104,-0.013,-0.2025,-0.254,-0.2195,-0.2775
0.154,0.0195,-0.135,-0.0865,0.144,-0.0575,0.2155,0.221,0.1045,0.11,-0.0045,-0.1955,-0.253,-0.2175,-0.2795
0.1325,0.005,-0.128,-0.0685,0.13,-0.061,0.2025,0.2035,0.0935,0.101,-0.011,-0.201,-0.25,-0.2055,-0.279
0.1205,-0.0035,-0.1235,-0.0585,0.122,-0.063,0.193,0.1955,0.0835,0.096,-0.0155,-0.205,-0.2445,-0.1915,-0.2795
0.13,0.0105,-0.1195,-0.07,0.124,-0.054,0.199,0.2005,0.09,0.105,-0.0055,-0.1985,-0.243,-0.1875,-0.282
0.1315,0.02,-0.1115,-0.0755,0.121,-0.0455,0.1945,0.1975,0.0935,0.1095,-0.0035,-0.2005,-0.2415,-0.18,-0.2885
0.135,0.0275,-0.107,-0.081,0.1205,-0.0395,0.195,0.2015,0.1005,0.1155,0.002,-0.1975,-0.238,-0.178,-0.2915
0.1305,0.031,-0.0995,-0.081,0.1145,-0.034,0.202,0.2095,0.112,0.1235,0.012,-0.1905,-0.2385,-0.1745,-0.296
0.119,0.024,-0.0955,-0.0715,0.107,-0.0355,0.2005,0.207,0.113,0.123,0.0115,-0.1905,-0.2385,-0.1805,-0.3005
0.1135,0.0225,-0.0905,-0.0685,0.102,-0.0335,0.206,0.2115,0.1175,0.123,0.013,-0.1865,-0.2415,-0.183,-0.2975
0.1045,0.0175,-0.087,-0.061,0.0955,-0.0345,0.208,0.2095,0.115,0.121,0.009,-0.1875,-0.243,-0.1665,-0.2975
0.088,0.006,-0.082,-0.047,0.085,-0.038,0.2045,0.206,0.1125,0.119,0.003,-0.1905,-0.2435,-0.1655,-0.299
0.0795,0.0045,-0.075,-0.042,0.077,-0.035,0.205,0.207,0.112,0.12,0.0055,-0.1885,-0.245,-0.174,-0.3035
0.074,0.001,-0.073,-0.0375,0.0735,-0.0355,0.205,0.205,0.1115,0.122,0.012,-0.1835,-0.243,-0.1755,-0.309
0.078,0.008,-0.07,-0.043,0.074,-0.0305,0.208,0.209,0.117,0.126,0.017,-0.1785,-0.2415,-0.1735,-0.3125
0.0655,0.0025,-0.063,-0.034,0.064,-0.03,0.206,0.2085,0.115,0.123,0.015,-0.182,-0.2415,-0.1655,-0.316
0.051,0.0005,-0.0505,-0.0255,0.0505,-0.0245,0.206,0.21,0.117,0.125,0.016,-0.1815,-0.242,-0.161,-0.3205
0.0545,0.02,-0.0345,-0.037,0.044,-0.007,0.213,0.216,0.124,0.1315,0.021,-0.1745,-0.243,-0.1555,-0.3115
0.0465,0.023,-0.0235,-0.035,0.035,0.0,0.216,0.22,0.1255,0.132,0.0235,-0.1735,-0.245,-0.1535,-0.312
0.067,0.0375,-0.0295,-0.052,0.048,0.004,0.2155,0.223,0.1285,0.1355,0.0245,-0.175,-0.246,-0.1555,-0.3265
0.116,0.0635,-0.0525,-0.09,0.084,0.0055,0.2145,0.228,0.133,0.141,0.027,-0.1715,-0.243,-0.147,-0.3275
0.149,0.083,-0.066,-0.116,0.1075,0.009,0.219,0.2325,0.14,0.145,0.0325,-0.1675,-0.243,-0.1495,-0.3255
0.155,0.086,-0.069,-0.1205,0.112,0.009,0.2235,0.233,0.1385,0.142,0.029,-0.1725,-0.2495,-0.1715,-0.3245
0.1345,0.0685,-0.0655,-0.1015,0.1,0.002,0.22,0.231,0.1345,0.1385,0.022,-0.1805,-0.2525,-0.167,-0.325
0.106,0.049,-0.057,-0.0775,0.081,-0.0035,0.2195,0.2325,0.14,0.1415,0.0225,-0.18,-0.251,-0.157,-0.32
0.091,0.038,-0.0525,-0.0645,0.0715,-0.007,0.22,0.2345,0.141,0.141,0.019,-0.18,-0.25,-0.152,-0.319
0.0875,0.0305,-0.057,-0.059,0.072,-0.013,0.2195,0.2335,0.139,0.1365,0.013,-0.1865,-0.252,-0.152,-0.316
0.064,0.012,-0.052,-0.038,0.058,-0.02,0.2215,0.2335,0.139,0.134,0.0125,-0.193,-0.258,-0.173,-0.312
0.052,-0.001,-0.053,-0.0255,0.0525,-0.0265,0.218,0.228,0.136,0.1315,0.008,-0.2015,-0.262,-0.181,-0.326
0.0505,-0.0105,-0.061,-0.02,0.0555,-0.0355,0.2125,0.226,0.134,0.1265,0.003,-0.2085,-0.263,-0.172,-0.3295
0.046,-0.008,-0.0535,-0.019,0.0495,-0.0305,0.2105,0.2255,0.134,0.127,0.004,-0.2075,-0.2635,-0.164,-0.329
0.0575,0.007,-0.0505,-0.032,0.054,-0.0215,0.212,0.227,0.136,0.132,0.009,-0.2035,-0.2625,-0.161,-0.3315
0.0505,0.0035,-0.047,-0.027,0.0485,-0.0215,0.216,0.232,0.1405,0.1365,0.014,-0.2025,-0.262,-0.162,-0.331
0.045,-0.002,-0.047,-0.0215,0.0455,-0.024,0.217,0.234,0.145,0.139,0.015,-0.2005,-0.261,-0.156,-0.3395
0.051,-0.001,-0.052,-0.025,0.051,-0.026,0.214,0.2325,0.145,0.138,0.012,-0.201,-0.26,-0.1555,-0.3365
0.075,0.023,-0.0525,-0.049,0.0635,-0.0145,0.219,0.238,0.1515,0.1425,0.0175,-0.194,-0.258,-0.171,-0.341
0.104,0.054,-0.05,-0.079,0.0765,0.0025,0.227,0.2495,0.162,0.152,0.0305,-0.182,-0.2555,-0.173,-0.346
0.105,0.0635,-0.0415,-0.0845,0.073,0.0115,0.227,0.251,0.164,0.1545,0.032,-0.182,-0.2575,-0.166,-0.343
0.101,0.0665,-0.0345,-0.084,0.0675,0.0165,0.225,0.249,0.162,0.1525,0.0295,-0.185,-0.2575,-0.1535,-0.34
0.1115,0.079,-0.033,-0.095,0.072,0.023,0.2265,0.248,0.16,0.154,0.0315,-0.187,-0.259,-0.1445,-0.3425
0.128,0.1,-0.028,-0.114,0.0775,0.0365,0.231,0.252,0.165,0.1615,0.037,-0.1845,-0.2595,-0.151,-0.358
0.126,0.098,-0.028,-0.112,0.077,0.035,0.2285,0.2535,0.166,0.1625,0.0375,-0.184,-0.257,-0.159,-0.356
0.1265,0.0925,-0.034,-0.1095,0.08,0.0295,0.2255,0.251,0.166,0.161,0.032,-0.185,-0.2545,-0.157,-0.3475
0.1145,0.0885,-0.0265,-0.1015,0.0705,0.031,0.2255,0.251,0.167,0.1585,0.029,-0.1875,-0.2545,-0.138,-0.3495
0.0945,0.0715,-0.023,-0.083,0.0585,0.0245,0.2275,0.2535,0.1695,0.1555,0.031,-0.1875,-0.2565,-0.1325,-0.35
0.0935,0.0715,-0.022,-0.0825,0.0575,0.025,0.2355,0.264,0.178,0.1595,0.0355,-0.185,-0.258,-0.141,-0.3515
0.078,0.058,-0.02,-0.068,0.049,0.019,0.2325,0.2585,0.1765,0.153,0.0295,-0.192,-0.2585,-0.1465,-0.3485
0.0675,0.0405,-0.027,-0.054,0.047,0.007,0.229,0.254,0.177,0.1505,0.0285,-0.1965,-0.258,-0.151,-0.3445
0.0575,0.024,-0.0335,-0.0405,0.045,-0.0045,0.2255,0.253,0.1755,0.1475,0.025,-0.2,-0.2575,-0.156,-0.346
0.052,0.021,-0.031,-0.0365,0.041,-0.0045,0.2275,0.2565,0.1785,0.1505,0.025,-0.1985,-0.2575,-0.159,-0.349
0.067,0.0475,-0.019,-0.0575,0.043,0.0145,0.2415,0.272,0.194,0.166,0.038,-0.1845,-0.256,-0.152,-0.34
0.0715,0.0515,-0.0205,-0.0615,0.0455,0.016,0.2395,0.272,0.1945,0.167,0.0375,-0.184,-0.2525,-0.1495,-0.349
0.062,0.024,-0.0385,-0.043,0.05,-0.007,0.225,0.259,0.1795,0.1535,0.0255,-0.1995,-0.2505,-0.155,-0.3565
0.0295,-0.0115,-0.0415,-0.009,0.0355,-0.026,0.211,0.2455,0.1655,0.139,0.013,-0.2125,-0.2505,-0.165,-0.3485
0.0125,-0.009,-0.0215,-0.002,0.017,-0.015,0.2155,0.2525,0.172,0.148,0.019,-0.207,-0.253,-0.163,-0.356
0.0285,0.0125,-0.016,-0.0205,0.022,-0.0015,0.2245,0.263,0.185,0.159,0.029,-0.198,-0.2535,-0.148,-0.357
0.0355,0.0195,-0.016,-0.027,0.025,0.002,0.2255,0.266,0.1885,0.165,0.0355,-0.195,-0.2515,-0.146,-0.3555
0.034,0.0245,-0.0095,-0.029,0.021,0.008,0.231,0.2685,0.1925,0.17,0.036,-0.195,-0.2545,-0.1495,-0.358
0.035,0.0265,-0.0085,-0.0305,0.021,0.0095,0.2325,0.2685,0.1955,0.164,0.0285,-0.201,-0.26,-0.154,-0.359
0.034,0.0305,-0.0035,-0.0325,0.0185,0.0135,0.2355,0.2725,0.2,0.166,0.0315,-0.202,-0.2635,-0.148,-0.361
0.0665,0.056,-0.0105,-0.0615,0.0385,0.023,0.2435,0.2805,0.21,0.176,0.041,-0.1955,-0.2625,-0.145,-0.3645
0.089,0.068,-0.0205,-0.0785,0.0545,0.024,0.245,0.282,0.2115,0.1785,0.044,-0.194,-0.2645,-0.149,-0.364
0.076,0.0555,-0.0205,-0.066,0.048,0.0175,0.238,0.2755,0.2035,0.1695,0.033,-0.203,-0.269,-0.1485,-0.3605
0.0805,0.054,-0.027,-0.067,0.0535,0.0135,0.233,0.272,0.198,0.1645,0.0255,-0.209,-0.2705,-0.1475,-0.3615
0.0755,0.0485,-0.0275,-0.0615,0.051,0.0105,0.235,0.2735,0.1985,0.1655,0.027,-0.2065,-0.269,-0.1415,-0.3605
0.0645,0.043,-0.0215,-0.0535,0.0425,0.011,0.237,0.279,0.2025,0.169,0.031,-0.203,-0.266,-0.1425,-0.36
0.038,0.0195,-0.0185,-0.029,0.028,0.0005,0.232,0.2745,0.195,0.164,0.023,-0.208,-0.266,-0.1495,-0.358
0.019,0.0005,-0.0185,-0.0095,0.018,-0.0085,0.231,0.2715,0.192,0.159,0.017,-0.2105,-0.266,-0.157,-0.359
0.035,0.007,-0.028,-0.021,0.0315,-0.01,0.233,0.275,0.1925,0.1585,0.019,-0.2085,-0.2645,-0.1555,-0.3625
0.0595,0.018,-0.0415,-0.0385,0.05,-0.0115,0.229,0.27,0.1905,0.158,0.016,-0.2105,-0.2645,-0.1585,-0.3635
0.08,0.034,-0.046,-0.057,0.0625,-0.0055,0.2315,0.276,0.197,0.1645,0.0235,-0.203,-0.2615,-0.168,-0.362
0.067,0.034,-0.033,-0.0505,0.05,0.0005,0.235,0.2825,0.2015,0.1675,0.027,-0.1995,-0.2625,-0.165,-0.3635
0.053,0.0285,-0.0245,-0.041,0.0385,0.0025,0.237,0.2835,0.203,0.169,0.026,-0.1995,-0.264,-0.1605,-0.3745
0.053,0.025,-0.028,-0.039,0.0405,-0.001,0.238,0.287,0.205,0.168,0.0255,-0.2005,-0.264,-0.1625,-0.3775
0.075,0.0375,-0.037,-0.056,0.0555,0.0005,0.237,0.2875,0.205,0.166,0.024,-0.2015,-0.268,-0.16,-0.379
0.1145,0.0705,-0.044,-0.0925,0.079,0.0135,0.2465,0.2955,0.211,0.1715,0.0285,-0.193,-0.268,-0.161,-0.3845
0.119,0.0815,-0.0375,-0.1005,0.078,0.022,0.25,0.3005,0.2175,0.1745,0.029,-0.1905,-0.267,-0.167,-0.3885
0.09,0.0655,-0.0245,-0.0775,0.057,0.0205,0.2405,0.298,0.2165,0.172,0.0265,-0.194,-0.263,-0.169,-0.3905
0.0455,0.035,-0.0105,-0.0405,0.028,0.0125,0.2365,0.2945,0.213,0.166,0.0215,-0.2025,-0.264,-0.163,-0.386
0.0355,0.031,-0.004,-0.0335,0.0195,0.014,0.239,0.296,0.212,0.1665,0.0195,-0.2055,-0.2655,-0.149,-0.3805
0.0395,0.0325,-0.007,-0.036,0.023,0.013,0.238,0.297,0.212,0.1705,0.0205,-0.204,-0.2615,-0.1505,-0.372
0.0355,0.024,-0.0115,-0.03,0.0235,0.0065,0.2345,0.294,0.213,0.171,0.0145,-0.209,-0.2625,-0.1425,-0.3665
0.043,0.0215,-0.0215,-0.032,0.032,0.0,0.2315,0.2925,0.2105,0.164,0.009,-0.2155,-0.264,-0.133,-0.361
0.05,0.018,-0.032,-0.034,0.041,-0.007,0.228,0.2905,0.2105,0.1545,0.0045,-0.222,-0.269,-0.1375,-0.355
0.0395,0.0135,-0.026,-0.0265,0.0325,-0.006,0.233,0.2965,0.2175,0.159,0.008,-0.2205,-0.2725,-0.145,-0.3625
0.0125,-0.0075,-0.02,-0.0025,0.016,-0.0135,0.236,0.2995,0.22,0.163,0.0085,-0.223,-0.2755,-0.156,-0.367
0.008,-0.0135,-0.021,0.0025,0.0145,-0.017,0.2365,0.3,0.221,0.165,0.0075,-0.226,-0.277,-0.156,-0.369
0.0135,-0.0095,-0.023,-0.002,0.018,-0.016,0.239,0.3045,0.2275,0.1695,0.0135,-0.224,-0.2765,-0.1565,-0.3715
0.014,-0.0045,-0.0185,-0.005,0.016,-0.0115,0.2455,0.3115,0.2365,0.1745,0.0175,-0.2215,-0.2785,-0.1565,-0.371
0.0305,0.0105,-0.02,-0.0205,0.025,-0.0045,0.2485,0.3155,0.24,0.176,0.02,-0.219,-0.2765,-0.1595,-0.376
0.0445,0.0155,-0.029,-0.03,0.0365,-0.0065,0.2455,0.317,0.2375,0.174,0.0175,-0.2215,-0.2785,-0.167,-0.377
0.047,0.019,-0.028,-0.033,0.037,-0.004,0.2465,0.316,0.2375,0.173,0.015,-0.222,-0.279,-0.1645,-0.379
0.0735,0.0285,-0.045,-0.051,0.059,-0.008,0.2435,0.3155,0.238,0.171,0.015,-0.2225,-0.2775,-0.152,-0.381
0.09,0.03,-0.06,-0.06,0.0745,-0.0145,0.2415,0.315,0.234,0.1665,0.0125,-0.2265,-0.279,-0.1455,-0.3785
0.0715,0.0265,-0.045,-0.049,0.058,-0.009,0.245,0.318,0.2365,0.1695,0.014,-0.224,-0.279,-0.151,-0.378
0.0365,0.017,-0.0195,-0.0265,0.028,-0.001,0.2455,0.327,0.2465,0.178,0.022,-0.2165,-0.274,-0.152,-0.381
0.022,0.0225,0.0005,-0.0225,0.0105,0.012,0.2465,0.3315,0.256,0.184,0.026,-0.211,-0.2715,-0.157,-0.38
0.029,0.0395,0.0105,-0.0345,0.009,0.0255,0.2525,0.3415,0.263,0.1895,0.0175,-0.2075,-0.273,-0.154,-0.379
0.029,0.0385,0.01,-0.0335,0.009,0.0245,0.2535,0.3415,0.2595,0.1895,0.007,-0.211,-0.2715,-0.1335,-0.3765
0.0315,0.0375,0.006,-0.0345,0.0125,0.022,0.251,0.335,0.257,0.189,0.0035,-0.214,-0.27,-0.1335,-0.3745
0.067,0.0585,-0.0085,-0.063,0.0375,0.0255,0.253,0.343,0.2645,0.1885,0.0085,-0.2125,-0.2705,-0.1435,-0.3785
0.109,0.0895,-0.0195,-0.0995,0.064,0.0355,0.263,0.356,0.273,0.1935,0.024,-0.203,-0.269,-0.1395,-0.3835
0.1115,0.106,-0.0055,-0.109,0.0585,0.0505,0.273,0.3685,0.283,0.2035,0.036,-0.1965,-0.2705,-0.131,-0.3845
0.0905,0.0985,0.008,-0.0945,0.041,0.0535,0.274,0.3705,0.2855,0.205,0.0385,-0.199,-0.2735,-0.144,-0.381
0.055,0.0765,0.0215,-0.0655,0.016,0.0495,0.274,0.37,0.2845,0.2055,0.0385,-0.2035,-0.276,-0.1505,-0.3825
0.053,0.0735,0.02,-0.0635,0.016,0.047,0.2765,0.3745,0.2915,0.211,0.0445,-0.204,-0.277,-0.1325,-0.382
0.0735,0.073,0.0,-0.073,0.0365,0.037,0.273,0.371,0.2855,0.2065,0.043,-0.207,-0.276,-0.134,-0.383
0.057,0.047,-0.01,-0.052,0.033,0.0185,0.261,0.36,0.272,0.1915,0.0285,-0.2205,-0.2765,-0.138,-0.385
0.0305,0.023,-0.0075,-0.027,0.0185,0.008,0.259,0.356,0.2685,0.1865,0.022,-0.226,-0.2755,-0.139,-0.3875
0.023,0.019,-0.004,-0.021,0.0135,0.0075,0.2595,0.359,0.2685,0.1865,0.0195,-0.2275,-0.278,-0.1375,-0.388
0.0035,0.0015,-0.002,-0.0025,0.0025,0.0,0.253,0.3585,0.267,0.181,0.013,-0.234,-0.2795,-0.14,-0.387
-0.015,-0.0115,0.004,0.0135,-0.01,-0.0035,0.251,0.358,0.266,0.1815,0.011,-0.236,-0.2795,-0.1435,-0.3905
0.0045,-0.0025,-0.0065,-0.001,0.0055,-0.0045,0.252,0.363,0.2695,0.189,0.016,-0.233,-0.28,-0.148,-0.393
0.0205,0.014,-0.0065,-0.017,0.0135,0.004,0.259,0.37,0.277,0.199,0.0245,-0.228,-0.281,-0.1515,-0.3985
0.029,0.026,-0.003,-0.0275,0.016,0.012,0.263,0.377,0.282,0.2065,0.026,-0.225,-0.281,-0.147,-0.4045
0.03,0.021,-0.0085,-0.0255,0.019,0.0065,0.262,0.379,0.2805,0.204,0.0225,-0.225,-0.281,-0.1435,-0.3965
0.0325,0.0285,-0.004,-0.0305,0.018,0.0125,0.2655,0.384,0.2815,0.205,0.0235,-0.225,-0.2835,-0.141,-0.3985
0.057,0.048,-0.009,-0.0525,0.033,0.0195,0.267,0.3875,0.2835,0.209,0.026,-0.2245,-0.2815,-0.147,-0.419
0.075,0.062,-0.013,-0.0685,0.0435,0.025,0.2735,0.396,0.2895,0.214,0.031,-0.219,-0.28,-0.1445,-0.4155
0.0635,0.0555,-0.008,-0.0595,0.0355,0.024,0.2725,0.397,0.2885,0.213,0.0275,-0.2215,-0.2805,-0.1355,-0.4105
0.041,0.0375,-0.0035,-0.0395,0.022,0.0175,0.2645,0.3905,0.2855,0.21,0.0225,-0.2295,-0.281,-0.144,-0.413
0.044,0.039,-0.005,-0.0415,0.024,0.017,0.266,0.396,0.294,0.218,0.0295,-0.2255,-0.2775,-0.1475,-0.412
0.044,0.038,-0.0065,-0.041,0.025,0.016,0.2655,0.398,0.297,0.217,0.0285,-0.227,-0.2775,-0.1335,-0.412
0.019,0.0185,-0.001,-0.019,0.01,0.009,0.2625,0.398,0.2955,0.21,0.021,-0.232,-0.2795,-0.1365,-0.409
0.016,0.0215,0.005,-0.019,0.005,0.0135,0.2655,0.4005,0.3,0.21,0.0195,-0.2325,-0.281,-0.1395,-0.4015
0.033,0.04,0.007,-0.0365,0.0125,0.024,0.274,0.4135,0.311,0.2185,0.026,-0.225,-0.28,-0.14,-0.4005
0.028,0.039,0.011,-0.0335,0.0085,0.025,0.2795,0.4225,0.3205,0.224,0.03,-0.221,-0.2795,-0.1435,-0.4125
0.0235,0.0375,0.014,-0.0305,0.0045,0.026,0.282,0.423,0.326,0.2255,0.0285,-0.224,-0.282,-0.13,-0.413
0.03,0.038,0.008,-0.034,0.011,0.023,0.2805,0.427,0.3315,0.228,0.03,-0.2245,-0.281,-0.1245,-0.41
0.048,0.0485,0.0005,-0.048,0.0235,0.0245,0.283,0.43,0.338,0.231,0.0325,-0.2235,-0.2825,-0.127,-0.405
0.0575,0.054,-0.0035,-0.056,0.0305,0.0255,0.2835,0.4325,0.3385,0.229,0.0285,-0.2255,-0.2835,-0.128,-0.4045
0.035,0.0315,-0.0035,-0.033,0.019,0.014,0.2765,0.429,0.3305,0.22,0.021,-0.233,-0.285,-0.129,-0.411
0.0345,0.027,-0.0075,-0.031,0.021,0.01,0.2765,0.431,0.3325,0.2245,0.022,-0.2295,-0.2815,-0.133,-0.41
0.0345,0.029,-0.0055,-0.0315,0.0195,0.012,0.275,0.4375,0.34,0.231,0.0255,-0.2275,-0.2755,-0.1315,-0.4145
0.0195,0.023,0.0035,-0.0215,0.0075,0.0135,0.2775,0.4405,0.3455,0.2325,0.0245,-0.231,-0.2785,-0.138,-0.4235
0.0205,0.0265,0.006,-0.0235,0.007,0.0165,0.2825,0.443,0.3495,0.2345,0.025,-0.234,-0.2835,-0.1515,-0.429
0.033,0.0365,0.0035,-0.0345,0.0145,0.0205,0.28,0.4465,0.3495,0.234,0.0245,-0.241,-0.2865,-0.1435,-0.431
0.047,0.0555,0.0085,-0.0515,0.019,0.032,0.2815,0.452,0.3515,0.2355,0.0265,-0.239,-0.2865,-0.1285,-0.4345
0.04,0.061,0.021,-0.0505,0.009,0.041,0.285,0.457,0.355,0.2395,0.029,-0.2415,-0.289,-0.1195,-0.4365
0.0235,0.0555,0.0325,-0.0395,-0.0045,0.044,0.291,0.4655,0.3665,0.2485,0.028,-0.2435,-0.292,-0.123,-0.4425
0.019,0.0535,0.0345,-0.0365,-0.008,0.0445,0.2925,0.473,0.3745,0.2505,0.026,-0.2425,-0.291,-0.1225,-0.4445
0.0175,0.0485,0.031,-0.033,-0.007,0.04,0.289,0.475,0.3715,0.2465,0.0225,-0.243,-0.291,-0.116,-0.4435
0.0045,0.043,0.0385,-0.0235,-0.017,0.041,0.288,0.475,0.3695,0.2445,0.019,-0.2455,-0.2925,-0.1175,-0.4485
-0.0055,0.0395,0.045,-0.0175,-0.0255,0.0425,0.2845,0.475,0.372,0.2465,0.019,-0.251,-0.295,-0.1185,-0.4435
0.0035,0.0435,0.04,-0.0235,-0.0185,0.042,0.283,0.4755,0.3755,0.2485,0.017,-0.2525,-0.296,-0.1095,-0.445
0.032,0.066,0.034,-0.049,-0.0015,0.0505,0.292,0.4865,0.384,0.254,0.0215,-0.2455,-0.2955,-0.103,-0.435
0.0665,0.0965,0.0305,-0.0815,0.0175,0.0635,0.3075,0.506,0.4015,0.2675,0.033,-0.231,-0.2945,-0.116,-0.435
0.0875,0.1125,0.025,-0.1,0.031,0.069,0.3155,0.519,0.4115,0.274,0.038,-0.2245,-0.294,-0.1305,-0.453
0.0775,0.101,0.024,-0.0895,0.0265,0.0625,0.313,0.5185,0.4095,0.27,0.0355,-0.2275,-0.293,-0.127,-0.45
0.0465,0.072,0.0255,-0.0595,0.0105,0.049,0.303,0.513,0.404,0.2645,0.03,-0.2375,-0.2955,-0.1205,-0.453
0.018,0.037,0.019,-0.0275,-0.0005,0.028,0.2915,0.504,0.395,0.254,0.019,-0.25,-0.2965,-0.1155,-0.458
0.008,0.0255,0.0175,-0.017,-0.005,0.0215,0.291,0.5055,0.3965,0.2495,0.014,-0.253,-0.2955,-0.106,-0.46
0.03,0.0465,0.0165,-0.038,0.0065,0.0315,0.302,0.523,0.4105,0.2615,0.0245,-0.2445,-0.2945,-0.1115,-0.4665
0.0465,0.0565,0.01,-0.0515,0.018,0.0335,0.304,0.527,0.415,0.2655,0.0255,-0.243,-0.294,-0.1175,-0.4705
0.041,0.059,0.018,-0.05,0.011,0.0385,0.3085,0.534,0.4205,0.269,0.026,-0.2435,-0.2945,-0.1145,-0.4745
0.031,0.0645,0.033,-0.048,-0.001,0.049,0.317,0.548,0.4335,0.2795,0.0345,-0.239,-0.296,-0.1275,-0.479
0.0385,0.075,0.0365,-0.0565,0.001,0.0555,0.3195,0.553,0.437,0.284,0.0335,-0.242,-0.297,-0.1245,-0.4785
0.046,0.0795,0.034,-0.0625,0.006,0.057,0.316,0.5535,0.434,0.2805,0.025,-0.25,-0.297,-0.108,-0.481
0.0345,0.0705,0.0365,-0.0525,-0.001,0.0535,0.3105,0.551,0.428,0.2735,0.0185,-0.26,-0.2995,-0.1065,-0.4815
0.0355,0.07,0.035,-0.0525,-0.0005,0.053,0.307,0.548,0.4275,0.2715,0.014,-0.2665,-0.301,-0.092,-0.4805
0.024,0.0675,0.0435,-0.0455,-0.01,0.0555,0.305,0.5495,0.4305,0.27,0.0115,-0.268,-0.302,-0.084,-0.482
-0.0035,0.054,0.0575,-0.025,-0.031,0.056,0.307,0.5565,0.4365,0.2725,0.0115,-0.27,-0.306,-0.09,-0.4805
-0.0125,0.0465,0.0585,-0.017,-0.036,0.0525,0.307,0.559,0.439,0.27,0.0065,-0.277,-0.307,-0.089,-0.479
0.0,0.053,0.053,-0.0265,-0.027,0.0535,0.3085,0.564,0.4405,0.272,0.003,-0.281,-0.3085,-0.09,-0.4785
0.023,0.0775,0.0545,-0.05,-0.016,0.066,0.318,0.5795,0.4555,0.288,0.013,-0.272,-0.309,-0.0745,-0.48
0.0375,0.0995,0.062,-0.0685,-0.0125,0.081,0.3285,0.593,0.4705,0.3,0.023,-0.2625,-0.306,-0.0785,-0.4845
0.032,0.0945,0.063,-0.063,-0.016,0.079,0.3355,0.603,0.4795,0.3085,0.0285,-0.2565,-0.306,-0.095,-0.488
0.021,0.089,0.068,-0.0555,-0.024,0.079,0.338,0.612,0.4895,0.3175,0.035,-0.253,-0.304,-0.0875,-0.4885
0.0335,0.1035,0.07,-0.0685,-0.0185,0.087,0.345,0.6215,0.503,0.329,0.042,-0.2475,-0.301,-0.0845,-0.494
0.053,0.116,0.063,-0.084,-0.0055,0.0895,0.3485,0.628,0.5105,0.3345,0.045,-0.245,-0.299,-0.0905,-0.4985
0.054,0.1135,0.059,-0.0835,-0.003,0.0865,0.3495,0.632,0.514,0.3355,0.0445,-0.244,-0.298,-0.091,-0.5045
0.0355,0.1025,0.067,-0.069,-0.016,0.085,0.35,0.636,0.52,0.3395,0.045,-0.2445,-0.296,-0.085,-0.509
0.014,0.094,0.08,-0.054,-0.033,0.087,0.352,0.6415,0.5235,0.3415,0.0485,-0.2445,-0.2965,-0.092,-0.5135
0.0095,0.086,0.0765,-0.048,-0.0335,0.0815,0.3515,0.644,0.5235,0.3385,0.0445,-0.246,-0.299,-0.093,-0.5185
-0.0035,0.0645,0.068,-0.0305,-0.036,0.0665,0.3365,0.635,0.516,0.329,0.0315,-0.2585,-0.2985,-0.098,-0.5155
-0.0055,0.0595,0.065,-0.027,-0.0355,0.063,0.334,0.636,0.5185,0.3285,0.03,-0.2605,-0.2995,-0.0805,-0.519
-0.005,0.073,0.0775,-0.034,-0.0415,0.0755,0.3415,0.6485,0.5265,0.34,0.0395,-0.254,-0.299,-0.052,-0.5255
0.001,0.083,0.082,-0.0415,-0.041,0.0825,0.341,0.652,0.5295,0.3455,0.043,-0.255,-0.299,-0.069,-0.53
0.0325,0.096,0.064,-0.064,-0.016,0.08,0.337,0.648,0.5285,0.3475,0.039,-0.263,-0.299,-0.072,-0.5355
0.042,0.112,0.07,-0.077,-0.014,0.091,0.34,0.656,0.535,0.3555,0.037,-0.2635,-0.3005,-0.0715,-0.5455
0.0495,0.1285,0.079,-0.089,-0.015,0.104,0.3465,0.666,0.5435,0.3585,0.041,-0.261,-0.308,-0.076,-0.55
0.0455,0.1315,0.0865,-0.0885,-0.021,0.1095,0.353,0.675,0.5495,0.361,0.0455,-0.264,-0.317,-0.073,-0.5455
0.0565,0.1545,0.098,-0.1055,-0.021,0.1265,0.365,0.689,0.5625,0.3715,0.052,-0.2605,-0.323,-0.071,-0.5475
0.064,0.158,0.0935,-0.111,-0.015,0.126,0.366,0.69,0.566,0.3725,0.0495,-0.265,-0.3255,-0.069,-0.5465
0.0485,0.142,0.093,-0.095,-0.0225,0.118,0.3645,0.693,0.5685,0.372,0.043,-0.2705,-0.3255,-0.06,-0.546
0.066,0.1685,0.1025,-0.1175,-0.0185,0.136,0.3745,0.7055,0.582,0.3865,0.052,-0.2605,-0.324,-0.0485,-0.546
0.0715,0.177,0.1055,-0.1245,-0.0175,0.1415,0.3825,0.7175,0.595,0.4,0.0625,-0.253,-0.3225,-0.0565,-0.5495
0.048,0.158,0.1105,-0.103,-0.0315,0.1345,0.384,0.7215,0.6015,0.4045,0.066,-0.253,-0.3215,-0.063,-0.5565
0.0105,0.133,0.122,-0.0715,-0.056,0.128,0.3785,0.721,0.5985,0.3975,0.062,-0.257,-0.319,-0.0635,-0.557
-0.023,0.0985,0.122,-0.038,-0.0725,0.1105,0.3705,0.718,0.5935,0.3925,0.053,-0.2625,-0.3145,-0.078,-0.562
-0.0525,0.074,0.1265,-0.011,-0.0895,0.1005,0.3655,0.7135,0.5915,0.3915,0.046,-0.269,-0.3145,-0.0765,-0.569
-0.063,0.0695,0.1325,-0.003,-0.098,0.101,0.3655,0.7145,0.5955,0.3945,0.045,-0.269,-0.3165,-0.065,-0.576
-0.0605,0.0855,0.146,-0.0125,-0.103,0.1155,0.376,0.7295,0.6125,0.409,0.0545,-0.2565,-0.316,-0.061,-0.5795
-0.047,0.111,0.158,-0.032,-0.1025,0.1345,0.3865,0.745,0.625,0.4215,0.0645,-0.246,-0.3175,-0.0425,-0.5805
-0.0145,0.1385,0.153,-0.0625,-0.084,0.146,0.3905,0.748,0.6295,0.428,0.0685,-0.244,-0.321,-0.0355,-0.586
0.006,0.1435,0.1375,-0.0745,-0.066,0.1405,0.3875,0.7455,0.633,0.427,0.064,-0.252,-0.3255,-0.042,-0.592
0.0145,0.141,0.126,-0.0775,-0.056,0.1335,0.382,0.7415,0.6295,0.4245,0.0575,-0.2575,-0.3265,-0.046,-0.5945
0.015,0.152,0.1365,-0.0835,-0.061,0.1445,0.3815,0.745,0.635,0.432,0.0615,-0.255,-0.3245,-0.0365,-0.6015
0.018,0.154,0.136,-0.086,-0.059,0.1455,0.3795,0.7475,0.6415,0.4365,0.061,-0.2585,-0.324,-0.026,-0.6095
0.0205,0.1465,0.126,-0.0835,-0.053,0.1365,0.374,0.7405,0.641,0.433,0.0555,-0.2675,-0.323,-0.0345,-0.6075
0.028,0.1555,0.1275,-0.0915,-0.05,0.1415,0.377,0.743,0.6445,0.435,0.057,-0.2675,-0.323,-0.0305,-0.606
0.037,0.1805,0.1435,-0.109,-0.0535,0.1625,0.39,0.758,0.661,0.45,0.067,-0.2545,-0.3225,-0.028,-0.6055
0.0445,0.201,0.157,-0.123,-0.0565,0.1795,0.4,0.768,0.6765,0.4625,0.0755,-0.2455,-0.321,-0.0305,-0.6
0.043,0.1955,0.1525,-0.1195,-0.055,0.1745,0.396,0.766,0.678,0.459,0.0695,-0.2525,-0.3235,-0.0165,-0.596
0.0275,0.175,0.1475,-0.1015,-0.06,0.1615,0.3885,0.7615,0.6785,0.458,0.062,-0.261,-0.325,-0.0055,-0.599
0.0315,0.175,0.1435,-0.1035,-0.056,0.1595,0.3865,0.762,0.684,0.463,0.0605,-0.2625,-0.323,-0.012,-0.6025
0.031,0.1815,0.15,-0.106,-0.0595,0.166,0.392,0.7685,0.696,0.473,0.069,-0.2545,-0.32,-0.0185,-0.604
0.0205,0.1775,0.157,-0.099,-0.0685,0.1675,0.397,0.777,0.7055,0.4825,0.0745,-0.249,-0.3205,-0.0185,-0.6055
0.0035,0.1685,0.1645,-0.086,-0.081,0.167,0.3955,0.777,0.709,0.482,0.0695,-0.254,-0.3225,-0.0175,-0.6085
-0.009,0.1675,0.1765,-0.0795,-0.093,0.1725,0.398,0.7805,0.7175,0.4855,0.0695,-0.254,-0.321,-0.0165,-0.613
-0.008,0.1675,0.1755,-0.08,-0.092,0.172,0.4,0.783,0.7265,0.4895,0.0705,-0.2535,-0.3185,-0.02,-0.6155
-0.011,0.1675,0.179,-0.078,-0.0955,0.1735,0.399,0.782,0.735,0.495,0.073,-0.253,-0.3175,-0.018,-0.622
-0.0215,0.1605,0.182,-0.0695,-0.102,0.1715,0.4025,0.786,0.7445,0.501,0.0755,-0.253,-0.318,-0.022,-0.6285
-0.029,0.1545,0.1835,-0.0625,-0.1065,0.169,0.403,0.785,0.7475,0.5045,0.078,-0.252,-0.3175,-0.0215,-0.634
-0.02,0.1665,0.1865,-0.073,-0.1035,0.1765,0.4035,0.7885,0.754,0.5115,0.083,-0.2465,-0.316,-0.007,-0.641
-0.0245,0.174,0.1985,-0.075,-0.1115,0.1865,0.407,0.792,0.763,0.5205,0.09,-0.242,-0.318,-0.013,-0.647
-0.0275,0.189,0.2165,-0.081,-0.1225,0.203,0.4085,0.789,0.7705,0.5275,0.0945,-0.2405,-0.3205,-0.004,-0.651
-0.009,0.212,0.2205,-0.1015,-0.115,0.2165,0.41,0.7885,0.7745,0.532,0.098,-0.2395,-0.318,0.0005,-0.66
0.0,0.211,0.2115,-0.1055,-0.106,0.2115,0.399,0.777,0.7665,0.528,0.0925,-0.246,-0.3165,-0.0095,-0.655
0.019,0.2115,0.1925,-0.1155,-0.087,0.202,0.388,0.769,0.767,0.5215,0.0855,-0.252,-0.315,0.0095,-0.654
0.036,0.2225,0.1865,-0.129,-0.0755,0.205,0.3905,0.7675,0.7745,0.525,0.089,-0.2485,-0.314,0.016,-0.6645
0.047,0.237,0.1895,-0.142,-0.0715,0.2135,0.3975,0.772,0.7825,0.533,0.096,-0.2415,-0.315,0.015,-0.66
0.07,0.2605,0.191,-0.165,-0.061,0.226,0.4045,0.7795,0.7945,0.541,0.1,-0.234,-0.316,0.0175,-0.656
0.064,0.263,0.199,-0.1635,-0.068,0.2315,0.401,0.775,0.7945,0.542,0.099,-0.2365,-0.3175,0.02,-0.655
0.038,0.2385,0.2005,-0.138,-0.0815,0.2195,0.3915,0.764,0.7845,0.537,0.0935,-0.2435,-0.3145,0.026,-0.653
0.003,0.2055,0.2025,-0.1045,-0.1,0.2045,0.3805,0.748,0.773,0.5265,0.082,-0.2555,-0.314,0.02,-0.648
-0.0265,0.1835,0.21,-0.0785,-0.1185,0.197,0.376,0.74,0.768,0.5235,0.0765,-0.2615,-0.317,0.011,-0.644
-0.027,0.182,0.209,-0.0775,-0.1185,0.196,0.381,0.7425,0.7725,0.5335,0.0855,-0.252,-0.3145,0.016,-0.644
-0.004,0.199,0.203,-0.0975,-0.1035,0.201,0.3855,0.745,0.7785,0.5415,0.093,-0.244,-0.313,0.0225,-0.6435
0.029,0.223,0.1945,-0.126,-0.083,0.209,0.3895,0.748,0.784,0.549,0.0985,-0.2375,-0.315,0.0195,-0.6475
0.0325,0.231,0.1985,-0.132,-0.083,0.215,0.3895,0.742,0.7795,0.5445,0.097,-0.237,-0.3185,0.0265,-0.6495
0.0275,0.231,0.204,-0.1295,-0.0885,0.2175,0.385,0.7315,0.7695,0.5365,0.092,-0.238,-0.321,0.0295,-0.649
0.0275,0.238,0.2105,-0.1325,-0.092,0.2245,0.384,0.728,0.771,0.5445,0.1,-0.2325,-0.319,0.0265,-0.6465
0.0145,0.236,0.2215,-0.1255,-0.104,0.229,0.378,0.7215,0.7735,0.5495,0.101,-0.229,-0.3135,0.023,-0.654
0.007,0.226,0.2195,-0.1165,-0.1065,0.223,0.37,0.71,0.7685,0.55,0.0985,-0.232,-0.309,0.021,-0.6525
0.0,0.2195,0.2195,-0.11,-0.11,0.2195,0.363,0.7015,0.7675,0.5515,0.0985,-0.2325,-0.306,0.0275,-0.6435
0.0015,0.222,0.221,-0.1115,-0.11,0.2215,0.3595,0.695,0.7715,0.553,0.1015,-0.227,-0.3,0.027,-0.6635
0.0035,0.227,0.224,-0.115,-0.1105,0.226,0.358,0.6885,0.771,0.5515,0.1045,-0.2265,-0.297,0.0295,-0.666
0.0015,0.234,0.2325,-0.118,-0.1155,0.2335,0.3565,0.6855,0.7745,0.554,0.1085,-0.2265,-0.2975,0.0355,-0.6565
0.018,0.2475,0.2295,-0.1325,-0.106,0.2385,0.356,0.6815,0.7785,0.5635,0.1165,-0.2205,-0.293,0.0365,-0.6525
0.026,0.245,0.2195,-0.1355,-0.097,0.2325,0.3515,0.6725,0.7765,0.565,0.1185,-0.22,-0.2825,0.0305,-0.654
0.021,0.2345,0.2135,-0.1275,-0.0965,0.2245,0.3425,0.663,0.774,0.569,0.121,-0.2175,-0.2705,0.0315,-0.6545
0.034,0.244,0.21,-0.139,-0.0885,0.227,0.3355,0.6535,0.772,0.5735,0.1245,-0.2095,-0.2605,0.04,-0.6435
0.037,0.2535,0.2165,-0.1455,-0.09,0.2355,0.3385,0.6515,0.773,0.5755,0.132,-0.198,-0.2545,0.0415,-0.64
0.0245,0.247,0.2225,-0.1355,-0.0995,0.235,0.3365,0.6445,0.7675,0.5755,0.134,-0.194,-0.251,0.041,-0.631
0.024,0.238,0.214,-0.131,-0.095,0.226,0.3275,0.633,0.758,0.574,0.1345,-0.193,-0.2455,0.0475,-0.622
0.0265,0.232,0.206,-0.1295,-0.09,0.2195,0.322,0.6255,0.755,0.5775,0.14,-0.1865,-0.239,0.0545,-0.617
0.0295,0.2265,0.1975,-0.128,-0.084,0.2125,0.322,0.624,0.762,0.5895,0.151,-0.1765,-0.2335,0.037,-0.615
0.0515,0.2415,0.1895,-0.1465,-0.0695,0.216,0.321,0.6225,0.766,0.596,0.157,-0.164,-0.231,0.029,-0.614
0.0375,0.2305,0.193,-0.134,-0.078,0.212,0.3125,0.605,0.7475,0.581,0.14,-0.1645,-0.2315,0.0305,-0.6105
0.0215,0.2135,0.1915,-0.1175,-0.0855,0.2025,0.307,0.597,0.7345,0.571,0.132,-0.1625,-0.228,0.0315,-0.6065
0.0325,0.217,0.1845,-0.125,-0.0765,0.201,0.2985,0.585,0.7245,0.568,0.138,-0.158,-0.222,0.036,-0.5995
0.0275,0.209,0.1815,-0.118,-0.0775,0.1955,0.2915,0.5725,0.711,0.565,0.145,-0.157,-0.222,0.0235,-0.6015
0.041,0.2245,0.184,-0.1325,-0.072,0.2045,0.2925,0.5755,0.713,0.575,0.1615,-0.1485,-0.22,0.031,-0.607
0.048,0.2385,0.191,-0.143,-0.072,0.215,0.2895,0.5685,0.7125,0.585,0.18,-0.1415,-0.2165,0.042,-0.604
0.0665,0.254,0.1875,-0.1605,-0.0605,0.221,0.2845,0.5585,0.7105,0.5885,0.1945,-0.1305,-0.212,0.051,-0.6015
0.098,0.2825,0.1845,-0.1905,-0.0435,0.234,0.287,0.559,0.7145,0.5945,0.21,-0.114,-0.204,0.045,-0.6
0.1185,0.3045,0.186,-0.2115,-0.034,0.2455,0.2905,0.5605,0.715,0.6025,0.225,-0.098,-0.1985,0.0275,-0.598
0.1405,0.321,0.18,-0.2305,-0.02,0.2505,0.2875,0.5555,0.712,0.604,0.232,-0.0895,-0.1935,0.037,-0.5995
0.1435,0.317,0.173,-0.23,-0.015,0.245,0.282,0.5455,0.7085,0.6035,0.2285,-0.09,-0.192,0.0265,-0.6015
0.129,0.2885,0.1595,-0.209,-0.015,0.224,0.2645,0.5305,0.696,0.595,0.2175,-0.0945,-0.1855,0.013,-0.592
0.1175,0.267,0.1495,-0.192,-0.0165,0.2085,0.2485,0.514,0.68,0.5805,0.2105,-0.096,-0.1795,0.022,-0.5805
0.1065,0.255,0.1485,-0.181,-0.021,0.202,0.239,0.5005,0.667,0.57,0.211,-0.0945,-0.175,0.0325,-0.572
0.1105,0.247,0.1365,-0.179,-0.013,0.192,0.2275,0.4875,0.653,0.562,0.215,-0.0945,-0.168,0.036,-0.5625
0.135,0.2605,0.1255,-0.1975,0.0045,0.1935,0.227,0.48,0.647,0.562,0.226,-0.0865,-0.1645,0.041,-0.559
0.1165,0.2455,0.129,-0.181,-0.0065,0.1875,0.2175,0.4705,0.6365,0.559,0.229,-0.0835,-0.157,0.051,-0.554
0.107,0.239,0.132,-0.173,-0.013,0.1855,0.2085,0.461,0.63,0.5595,0.235,-0.077,-0.149,0.0485,-0.5495
0.109,0.2435,0.135,-0.176,-0.013,0.1895,0.21,0.456,0.625,0.5635,0.2455,-0.0625,-0.1425,0.037,-0.5475
0.087,0.227,0.14,-0.157,-0.027,0.184,0.204,0.451,0.6185,0.5645,0.253,-0.054,-0.1325,0.0335,-0.545
0.0975,0.238,0.141,-0.168,-0.022,0.1895,0.2025,0.448,0.6185,0.571,0.2625,-0.0435,-0.126,0.034,-0.5445
0.116,0.2455,0.1295,-0.1805,-0.007,0.1875,0.198,0.4425,0.6115,0.5695,0.265,-0.0365,-0.119,0.0225,-0.5395
0.1235,0.242,0.1185,-0.183,0.002,0.1805,0.1895,0.4315,0.6005,0.558,0.26,-0.0355,-0.1135,0.014,-0.533
0.1225,0.233,0.1105,-0.178,0.006,0.172,0.1845,0.4205,0.589,0.5465,0.256,-0.033,-0.109,0.0065,-0.5305
0.1215,0.2265,0.105,-0.174,0.008,0.1665,0.181,0.4165,0.581,0.545,0.262,-0.0235,-0.0995,0.0,-0.5265
0.1265,0.2305,0.104,-0.1785,0.011,0.1675,0.177,0.4105,0.574,0.548,0.2675,-0.0165,-0.0935,0.003,-0.518
0.134,0.2315,0.0975,-0.183,0.018,0.165,0.172,0.401,0.5645,0.541,0.2655,-0.017,-0.092,-0.002,-0.5105
0.1185,0.2235,0.1045,-0.171,0.0065,0.1645,0.1625,0.39,0.55,0.5285,0.2595,-0.022,-0.093,-0.0005,-0.509
0.1125,0.225,0.1125,-0.169,-0.0005,0.169,0.1575,0.3795,0.538,0.5225,0.261,-0.0205,-0.093,0.0065,-0.5105
0.139,0.253,0.114,-0.196,0.012,0.184,0.1625,0.3795,0.54,0.531,0.274,-0.0095,-0.0905,0.0075,-0.5085
0.1505,0.2605,0.11,-0.2055,0.02,0.1855,0.1565,0.3715,0.534,0.5295,0.2735,-0.0055,-0.0865,0.01,-0.5025
0.142,0.243,0.101,-0.1925,0.0205,0.172,0.142,0.3575,0.516,0.516,0.2695,-0.007,-0.081,0.0095,-0.4965
0.128,0.2275,0.0995,-0.1775,0.014,0.1635,0.1385,0.35,0.503,0.507,0.271,-0.0085,-0.0785,0.0065,-0.492
0.1495,0.23,0.0805,-0.1895,0.034,0.1555,0.131,0.3385,0.491,0.497,0.267,-0.0125,-0.0735,0.003,-0.4875
0.1735,0.2445,0.071,-0.209,0.051,0.158,0.129,0.3375,0.487,0.495,0.2695,-0.0085,-0.0675,0.0095,-0.4785
0.184,0.255,0.0715,-0.2195,0.056,0.1635,0.136,0.3395,0.486,0.495,0.2765,0.0015,-0.069,0.012,-0.4665
0.178,0.2445,0.0665,-0.2115,0.0555,0.1555,0.133,0.332,0.4745,0.491,0.2765,0.002,-0.0685,0.004,-0.4615
0.1645,0.2225,0.058,-0.1935,0.053,0.1405,0.1245,0.322,0.458,0.4865,0.2775,-0.0025,-0.0655,-0.012,-0.4645
0.1845,0.2255,0.0415,-0.205,0.071,0.134,0.122,0.315,0.451,0.4885,0.2855,-0.003,-0.0655,-0.03,-0.467
0.207,0.238,0.031,-0.2225,0.0875,0.1345,0.126,0.318,0.452,0.4915,0.2955,0.0055,-0.065,-0.0285,-0.4585
0.2235,0.2355,0.012,-0.2295,0.1055,0.1235,0.12,0.3095,0.4395,0.479,0.293,0.0055,-0.0645,-0.033,-0.4525
0.201,0.2065,0.006,-0.204,0.0975,0.1065,0.112,0.295,0.4205,0.4585,0.276,-0.0065,-0.068,-0.049,-0.451
0.1735,0.1945,0.021,-0.184,0.076,0.108,0.1155,0.2935,0.4095,0.451,0.276,-0.0035,-0.068,-0.0385,-0.449
0.1735,0.204,0.0305,-0.189,0.0715,0.1175,0.1245,0.2985,0.4135,0.4595,0.284,0.0085,-0.0655,-0.015,-0.4475
0.166,0.187,0.021,-0.1765,0.072,0.1045,0.1215,0.291,0.407,0.4535,0.274,0.008,-0.066,-0.0325,-0.4435
0.1655,0.167,0.0015,-0.1665,0.0815,0.0845,0.1115,0.2795,0.3915,0.4435,0.2675,0.0015,-0.061,-0.0465,-0.4395
0.1505,0.1545,0.0045,-0.1525,0.073,0.08,0.11,0.279,0.388,0.445,0.271,0.0055,-0.056,-0.051,-0.4405
0.162,0.167,0.0055,-0.1645,0.078,0.0865,0.1125,0.278,0.3845,0.444,0.2785,0.0155,-0.053,-0.0615,-0.437
0.1905,0.18,-0.0105,-0.1855,0.1,0.085,0.1135,0.274,0.3735,0.433,0.2785,0.019,-0.0495,-0.057,-0.421
0.179,0.171,-0.0085,-0.175,0.0935,0.0815,0.111,0.2695,0.364,0.424,0.2735,0.0205,-0.048,-0.0585,-0.414
0.1665,0.169,0.0025,-0.168,0.082,0.086,0.1125,0.2675,0.361,0.4245,0.275,0.021,-0.048,-0.0485,-0.4135
0.1605,0.1595,-0.001,-0.16,0.0805,0.0795,0.11,0.2635,0.351,0.417,0.271,0.0145,-0.052,-0.048,-0.4125
0.1615,0.154,-0.0075,-0.158,0.084,0.0735,0.1045,0.26,0.343,0.4105,0.2685,0.012,-0.0535,-0.059,-0.414
0.1545,0.1555,0.001,-0.155,0.077,0.0785,0.1025,0.2565,0.335,0.4045,0.2675,0.012,-0.052,-0.0585,-0.4035
0.1515,0.156,0.0045,-0.1535,0.0735,0.0805,0.099,0.254,0.322,0.393,0.2615,0.0065,-0.053,-0.057,-0.3925
0.1565,0.1525,-0.004,-0.1545,0.08,0.0745,0.093,0.2405,0.3045,0.3785,0.2515,-0.002,-0.055,-0.0585,-0.3845
0.16,0.1515,-0.0085,-0.1555,0.084,0.0715,0.0905,0.2295,0.293,0.3695,0.244,-0.007,-0.057,-0.06,-0.3795
0.1785,0.16,-0.0185,-0.1695,0.0985,0.071,0.092,0.231,0.2915,0.3695,0.2415,-0.008,-0.059,-0.058,-0.3825
0.1865,0.162,-0.0245,-0.1745,0.1055,0.069,0.0935,0.231,0.2845,0.365,0.2425,-0.0075,-0.0615,-0.068,-0.3815
0.1975,0.1665,-0.0305,-0.182,0.1135,0.0685,0.1015,0.2375,0.2855,0.3645,0.2465,0.0,-0.0625,-0.079,-0.3725
0.2075,0.1705,-0.037,-0.1895,0.122,0.067,0.1065,0.2385,0.282,0.3605,0.244,0.001,-0.066,-0.077,-0.3615
0.2005,0.168,-0.0325,-0.1845,0.116,0.068,0.1055,0.235,0.273,0.3525,0.24,-0.0035,-0.067,-0.089,-0.357
0.1925,0.161,-0.031,-0.177,0.1115,0.065,0.1025,0.2315,0.2675,0.348,0.2365,-0.004,-0.063,-0.089,-0.3605
0.184,0.1525,-0.032,-0.1685,0.108,0.0605,0.1,0.2265,0.2605,0.342,0.2355,-0.006,-0.061,-0.089,-0.3605
0.1865,0.15,-0.0365,-0.1685,0.1115,0.057,0.1005,0.225,0.2565,0.3405,0.236,-0.0035,-0.0595,-0.0985,-0.356
0.1985,0.1555,-0.043,-0.177,0.1205,0.0565,0.0985,0.222,0.251,0.3375,0.2355,-0.0035,-0.059,-0.0865,-0.3515
0.196,0.1585,-0.0375,-0.1775,0.1165,0.061,0.097,0.2215,0.251,0.336,0.236,-0.005,-0.0615,-0.081,-0.3505
0.185,0.16,-0.025,-0.1725,0.105,0.0675,0.099,0.2225,0.2535,0.3395,0.2395,-0.0035,-0.066,-0.085,-0.3535
0.184,0.158,-0.026,-0.171,0.1045,0.0665,0.097,0.219,0.2495,0.3335,0.2335,-0.01,-0.0705,-0.0895,-0.3535
0.1745,0.136,-0.0385,-0.155,0.106,0.049,0.0845,0.204,0.2315,0.3135,0.2155,-0.026,-0.074,-0.09,-0.3515
0.178,0.1295,-0.0485,-0.1535,0.1125,0.041,0.0795,0.197,0.22,0.3005,0.207,-0.0335,-0.0745,-0.089,-0.355
0.1995,0.149,-0.0505,-0.174,0.125,0.049,0.0885,0.2015,0.2245,0.3005,0.21,-0.0285,-0.0735,-0.081,-0.3475
0.193,0.1495,-0.044,-0.1715,0.118,0.053,0.0895,0.197,0.2215,0.2955,0.21,-0.0275,-0.0755,-0.085,-0.335
0.196,0.1565,-0.0395,-0.1765,0.1175,0.059,0.094,0.1985,0.221,0.294,0.212,-0.0245,-0.0775,-0.098,-0.34
0.1955,0.153,-0.0425,-0.1745,0.119,0.0555,0.094,0.198,0.2185,0.291,0.2085,-0.026,-0.08,-0.105,-0.336
0.1835,0.138,-0.046,-0.161,0.1145,0.046,0.0915,0.196,0.214,0.289,0.2055,-0.0265,-0.0795,-0.09,-0.328
0.185,0.134,-0.051,-0.1595,0.118,0.0415,0.0925,0.1955,0.212,0.289,0.207,-0.026,-0.078,-0.0785,-0.3285
0.1685,0.117,-0.0515,-0.1425,0.11,0.033,0.09,0.195,0.2075,0.287,0.2075,-0.027,-0.0775,-0.0915,-0.327
0.153,0.1085,-0.044,-0.1305,0.098,0.0325,0.097,0.2015,0.2125,0.2935,0.213,-0.0175,-0.0745,-0.1015,-0.3285
0.131,0.082,-0.049,-0.1065,0.09,0.017,0.0965,0.1975,0.207,0.2845,0.204,-0.0225,-0.078,-0.119,-0.3275
0.1065,0.05,-0.0565,-0.0785,0.081,-0.003,0.091,0.1885,0.1935,0.2675,0.185,-0.0325,-0.084,-0.1225,-0.3225
0.132,0.0555,-0.0765,-0.0935,0.104,-0.0105,0.0825,0.179,0.183,0.251,0.1685,-0.042,-0.0915,-0.1175,-0.323
0.184,0.0815,-0.102,-0.1325,0.1425,-0.01,0.0815,0.176,0.175,0.241,0.1615,-0.049,-0.0965,-0.11,-0.323
0.201,0.1015,-0.0995,-0.1515,0.15,0.001,0.0915,0.184,0.181,0.247,0.169,-0.0445,-0.0985,-0.108,-0.3255
0.206,0.12,-0.086,-0.163,0.146,0.017,0.102,0.195,0.193,0.26,0.1845,-0.033,-0.099,-0.1105,-0.333
0.215,0.1345,-0.0805,-0.175,0.1475,0.0275,0.109,0.2,0.1955,0.2695,0.196,-0.0245,-0.0965,-0.119,-0.335
0.2075,0.129,-0.079,-0.1685,0.143,0.0255,0.109,0.196,0.1895,0.265,0.196,-0.028,-0.099,-0.134,-0.3335
0.2015,0.141,-0.0605,-0.1715,0.131,0.0405,0.1145,0.199,0.191,0.2675,0.1985,-0.0255,-0.1025,-0.123,-0.3335
0.1995,0.142,-0.0575,-0.1705,0.128,0.0425,0.1065,0.1895,0.1815,0.261,0.19,-0.033,-0.103,-0.1085,-0.331
0.1755,0.1035,-0.072,-0.1395,0.1235,0.016,0.087,0.166,0.158,0.2395,0.1695,-0.054,-0.103,-0.107,-0.323
0.1515,0.086,-0.0655,-0.119,0.108,0.0105,0.0875,0.167,0.1555,0.237,0.1665,-0.0565,-0.103,-0.109,-0.322
0.147,0.0875,-0.0595,-0.1175,0.103,0.0145,0.092,0.1735,0.162,0.241,0.1715,-0.049,-0.098,-0.1075,-0.321
0.1485,0.083,-0.0655,-0.116,0.107,0.009,0.091,0.1695,0.161,0.2415,0.1735,-0.0505,-0.0985,-0.118,-0.3165
0.152,0.084,-0.068,-0.118,0.11,0.0085,0.093,0.1695,0.159,0.2435,0.172,-0.053,-0.103,-0.115,-0.315
0.1435,0.082,-0.062,-0.1125,0.1025,0.01,0.092,0.1715,0.1605,0.243,0.172,-0.053,-0.101,-0.114,-0.312
0.1345,0.077,-0.0575,-0.1055,0.0955,0.01,0.091,0.1725,0.1615,0.2385,0.173,-0.0565,-0.104,-0.121,-0.31
0.1455,0.0805,-0.065,-0.113,0.105,0.008,0.09,0.17,0.1555,0.2325,0.1685,-0.0585,-0.105,-0.112,-0.3075
0.1555,0.084,-0.0715,-0.1195,0.1135,0.0065,0.0955,0.1725,0.154,0.234,0.171,-0.0545,-0.1045,-0.1065,-0.3055
0.167,0.091,-0.076,-0.129,0.1215,0.0075,0.097,0.173,0.1535,0.2335,0.1705,-0.0535,-0.1065,-0.107,-0.3055
0.182,0.1005,-0.0815,-0.1415,0.1315,0.0095,0.1025,0.1785,0.161,0.2395,0.173,-0.046,-0.1045,-0.111,-0.3105
0.165,0.085,-0.08,-0.125,0.1225,0.0025,0.1075,0.1825,0.165,0.241,0.175,-0.044,-0.1045,-0.1265,-0.309
0.157,0.077,-0.08,-0.117,0.1185,-0.0015,0.1035,0.177,0.156,0.231,0.1695,-0.052,-0.1075,-0.1375,-0.3125
0.1615,0.0815,-0.08,-0.1215,0.1205,0.001,0.1015,0.1765,0.1525,0.2285,0.1675,-0.052,-0.105,-0.119,-0.307
0.1495,0.07,-0.0795,-0.11,0.1145,-0.0045,0.0975,0.172,0.1505,0.2255,0.1665,-0.052,-0.102,-0.13,-0.308
0.163,0.078,-0.085,-0.1205,0.124,-0.0035,0.098,0.173,0.151,0.2265,0.1665,-0.049,-0.101,-0.1425,-0.3225
0.176,0.085,-0.091,-0.13,0.133,-0.003,0.1005,0.177,0.1515,0.2285,0.1645,-0.0485,-0.1,-0.1395,-0.3185
0.1565,0.079,-0.078,-0.1175,0.117,0.0005,0.101,0.18,0.1555,0.2335,0.17,-0.0475,-0.099,-0.1505,-0.32
0.144,0.0815,-0.0625,-0.1125,0.103,0.0095,0.099,0.1755,0.156,0.2335,0.171,-0.048,-0.1015,-0.1325,-0.317
0.1475,0.0905,-0.057,-0.119,0.102,0.017,0.0995,0.1725,0.15,0.2275,0.166,-0.051,-0.105,-0.1075,-0.314
0.145,0.098,-0.047,-0.1215,0.0955,0.026,0.1005,0.1755,0.1505,0.228,0.1655,-0.052,-0.1075,-0.1045,-0.3165
0.1415,0.0995,-0.042,-0.1205,0.0915,0.029,0.0995,0.175,0.151,0.2305,0.1645,-0.059,-0.1115,-0.119,-0.318
0.1455,0.1035,-0.042,-0.1245,0.094,0.031,0.097,0.175,0.152,0.233,0.165,-0.063,-0.112,-0.1115,-0.322
0.157,0.1095,-0.048,-0.133,0.102,0.031,0.0975,0.1725,0.154,0.2325,0.166,-0.0615,-0.111,-0.0945,-0.3195
0.169,0.1195,-0.0495,-0.1445,0.109,0.0355,0.099,0.172,0.151,0.2305,0.1675,-0.0605,-0.1115,-0.1055,-0.318
0.187,0.135,-0.052,-0.161,0.119,0.0415,0.0995,0.176,0.15,0.225,0.1695,-0.055,-0.111,-0.1125,-0.3105
0.1925,0.1395,-0.053,-0.166,0.1225,0.0435,0.1045,0.182,0.155,0.2285,0.171,-0.0475,-0.11,-0.113,-0.3065
0.181,0.1215,-0.0595,-0.151,0.12,0.031,0.1,0.176,0.153,0.226,0.1655,-0.0525,-0.11,-0.112,-0.3075
0.1765,0.1055,-0.071,-0.141,0.1235,0.0175,0.0945,0.1715,0.1505,0.219,0.159,-0.0575,-0.1105,-0.102,-0.307
0.1465,0.086,-0.06,-0.1165,0.103,0.013,0.096,0.1755,0.1535,0.2195,0.158,-0.0595,-0.1095,-0.1145,-0.31
0.128,0.069,-0.059,-0.0985,0.093,0.005,0.0955,0.176,0.1545,0.2155,0.155,-0.0635,-0.111,-0.124,-0.3075
0.1585,0.0805,-0.078,-0.1195,0.118,0.0015,0.102,0.179,0.159,0.216,0.1545,-0.0605,-0.1105,-0.126,-0.308
0.1705,0.0905,-0.08,-0.1305,0.125,0.0055,0.106,0.1795,0.1605,0.217,0.157,-0.058,-0.1085,-0.144,-0.309
0.1485,0.0885,-0.0595,-0.1185,0.104,0.015,0.106,0.181,0.157,0.2185,0.1635,-0.0575,-0.105,-0.1365,-0.3075
0.1305,0.078,-0.053,-0.104,0.0915,0.0125,0.1045,0.179,0.1555,0.2215,0.166,-0.0605,-0.104,-0.1205,-0.308
0.135,0.071,-0.0645,-0.103,0.0995,0.0035,0.097,0.1725,0.154,0.219,0.1585,-0.0655,-0.1055,-0.1135,-0.3125
0.1455,0.078,-0.068,-0.1115,0.1065,0.005,0.0925,0.17,0.153,0.2185,0.154,-0.0665,-0.1055,-0.122,-0.318
0.1505,0.0775,-0.073,-0.1135,0.111,0.0025,0.0895,0.165,0.1495,0.209,0.143,-0.0685,-0.107,-0.1265,-0.3135
0.1525,0.0815,-0.071,-0.117,0.1115,0.0055,0.091,0.1665,0.147,0.201,0.137,-0.066,-0.109,-0.119,-0.31
0.14,0.091,-0.049,-0.1155,0.0945,0.021,0.0985,0.1725,0.1525,0.208,0.147,-0.059,-0.111,-0.1165,-0.312
0.131,0.0975,-0.033,-0.114,0.0815,0.0325,0.1095,0.1805,0.1645,0.2185,0.156,-0.0545,-0.113,-0.117,-0.316
0.136,0.102,-0.034,-0.119,0.085,0.034,0.113,0.1865,0.1715,0.2245,0.151,-0.054,-0.1135,-0.118,-0.315
0.1505,0.1035,-0.047,-0.1265,0.0985,0.0285,0.111,0.1835,0.167,0.2205,0.144,-0.0555,-0.115,-0.116,-0.305
0.183,0.123,-0.06,-0.153,0.121,0.032,0.113,0.1875,0.171,0.226,0.1535,-0.0525,-0.114,-0.1135,-0.313
0.2025,0.141,-0.062,-0.1715,0.132,0.0395,0.1195,0.193,0.178,0.234,0.163,-0.0505,-0.115,-0.1065,-0.323
0.1855,0.1265,-0.0585,-0.156,0.122,0.0345,0.119,0.189,0.174,0.2265,0.159,-0.0575,-0.1185,-0.092,-0.314
0.136,0.0745,-0.0615,-0.105,0.0985,0.0065,0.0995,0.174,0.155,0.2045,0.1445,-0.069,-0.117,-0.092,-0.3065
0.1015,0.0425,-0.059,-0.072,0.08,-0.008,0.092,0.166,0.1455,0.193,0.1425,-0.0705,-0.1125,-0.1095,-0.301
0.1295,0.065,-0.0645,-0.0975,0.097,0.0005,0.1005,0.1715,0.149,0.2,0.1545,-0.0655,-0.111,-0.1125,-0.297
0.159,0.0805,-0.0785,-0.12,0.1185,0.001,0.1025,0.1745,0.151,0.2085,0.164,-0.062,-0.1095,-0.1115,-0.2975
0.17,0.094,-0.076,-0.132,0.1225,0.0095,0.105,0.1785,0.1605,0.2245,0.178,-0.0535,-0.104,-0.1215,-0.3035
0.172,0.0955,-0.076,-0.134,0.1235,0.01,0.1075,0.1835,0.168,0.236,0.189,-0.0485,-0.101,-0.128,-0.31
0.1595,0.0835,-0.0765,-0.1215,0.118,0.004,0.105,0.179,0.166,0.2325,0.1865,-0.053,-0.105,-0.117,-0.308
0.1545,0.09,-0.064,-0.122,0.109,0.013,0.1065,0.1825,0.1695,0.23,0.1845,-0.053,-0.108,-0.1175,-0.311
0.144,0.0935,-0.0505,-0.1185,0.097,0.0215,0.1155,0.1945,0.181,0.2345,0.188,-0.0455,-0.109,-0.1245,-0.3185
0.142,0.09,-0.0525,-0.116,0.097,0.019,0.116,0.195,0.1835,0.2315,0.1825,-0.0485,-0.1115,-0.1185,-0.3225
0.1555,0.083,-0.0725,-0.119,0.1135,0.0055,0.1065,0.188,0.175,0.221,0.1695,-0.06,-0.1115,-0.1205,-0.3205
0.1535,0.078,-0.0755,-0.1155,0.114,0.0015,0.107,0.1885,0.1765,0.223,0.1695,-0.0595,-0.1105,-0.126,-0.315
0.154,0.089,-0.0645,-0.1215,0.109,0.0125,0.1155,0.193,0.1815,0.233,0.1785,-0.052,-0.107,-0.1295,-0.315
0.1645,0.092,-0.0725,-0.1285,0.1185,0.0105,0.108,0.1875,0.174,0.233,0.177,-0.054,-0.1025,-0.1175,-0.3145
0.191,0.1,-0.091,-0.1455,0.1405,0.005,0.1005,0.1815,0.171,0.23,0.173,-0.0585,-0.1015,-0.113,-0.3245
0.2015,0.1135,-0.088,-0.1575,0.1445,0.013,0.1045,0.1855,0.175,0.2355,0.1785,-0.056,-0.103,-0.105,-0.324
0.1795,0.112,-0.0675,-0.1455,0.123,0.0225,0.112,0.1945,0.1815,0.243,0.1855,-0.05,-0.1065,-0.0995,-0.315
0.1785,0.118,-0.061,-0.148,0.1195,0.029,0.119,0.1975,0.1835,0.2465,0.1885,-0.049,-0.114,-0.1065,-0.318
0.1745,0.1145,-0.06,-0.1445,0.117,0.0275,0.114,0.1905,0.179,0.24,0.185,-0.0555,-0.116,-0.103,-0.319
0.171,0.1095,-0.0615,-0.14,0.116,0.0245,0.1125,0.1895,0.175,0.233,0.178,-0.058,-0.118,-0.11,-0.317
0.1655,0.1005,-0.065,-0.133,0.115,0.018,0.108,0.186,0.1665,0.227,0.173,-0.0625,-0.118,-0.115,-0.313
0.1415,0.0845,-0.057,-0.113,0.099,0.014,0.1025,0.1855,0.166,0.2255,0.173,-0.0635,-0.113,-0.1065,-0.314
0.122,0.076,-0.046,-0.099,0.0835,0.0155,0.104,0.1855,0.163,0.2175,0.1685,-0.065,-0.116,-0.0975,-0.3065
0.1015,0.059,-0.042,-0.0805,0.0715,0.009,0.105,0.1845,0.159,0.2125,0.1635,-0.066,-0.118,-0.103,-0.305
0.0935,0.0515,-0.042,-0.0725,0.0675,0.0055,0.106,0.184,0.16,0.219,0.1645,-0.065,-0.119,-0.1085,-0.312
0.1055,0.0645,-0.0415,-0.085,0.073,0.012,0.11,0.188,0.161,0.223,0.1715,-0.062,-0.1205,-0.1095,-0.31
0.118,0.074,-0.044,-0.096,0.081,0.015,0.115,0.198,0.167,0.2305,0.1765,-0.057,-0.12,-0.1205,-0.3125
0.1175,0.0735,-0.044,-0.0955,0.0805,0.015,0.108,0.194,0.1675,0.234,0.1735,-0.061,-0.1195,-0.1115,-0.321
0.1145,0.0655,-0.049,-0.09,0.0815,0.0085,0.1005,0.187,0.165,0.2325,0.168,-0.068,-0.118,-0.105,-0.328
0.1255,0.056,-0.0695,-0.0905,0.0975,-0.0065,0.0945,0.1835,0.1615,0.23,0.1605,-0.0725,-0.1165,-0.117,-0.3245
0.1285,0.0545,-0.074,-0.0915,0.101,-0.0095,0.0955,0.184,0.166,0.234,0.1605,-0.07,-0.114,-0.1165,-0.322
0.112,0.0565,-0.0555,-0.084,0.0835,0.0005,0.1025,0.1935,0.1755,0.241,0.168,-0.0605,-0.1145,-0.121,-0.3245
0.1055,0.0595,-0.046,-0.0825,0.0755,0.007,0.105,0.2005,0.179,0.243,0.1745,-0.056,-0.1135,-0.122,-0.322
0.1055,0.0625,-0.043,-0.0845,0.074,0.01,0.104,0.197,0.1785,0.2465,0.1775,-0.0565,-0.111,-0.116,-0.3195
0.103,0.067,-0.036,-0.085,0.0695,0.016,0.101,0.197,0.1785,0.25,0.177,-0.054,-0.1075,-0.1105,-0.3195
0.105,0.0635,-0.0415,-0.0845,0.073,0.0115,0.0935,0.191,0.1725,0.2435,0.169,-0.064,-0.106,-0.1045,-0.3215
0.1175,0.069,-0.0485,-0.0935,0.083,0.0105,0.0935,0.185,0.1695,0.241,0.168,-0.07,-0.109,-0.111,-0.323
0.145,0.093,-0.052,-0.1185,0.098,0.0205,0.1045,0.197,0.178,0.25,0.179,-0.0605,-0.1105,-0.106,-0.324
0.175,0.119,-0.0565,-0.147,0.1155,0.0315,0.1125,0.2045,0.185,0.258,0.1885,-0.053,-0.11,-0.101,-0.323
0.2075,0.1485,-0.059,-0.178,0.133,0.045,0.123,0.212,0.1955,0.2685,0.2015,-0.044,-0.1105,-0.112,-0.322
0.222,0.1655,-0.056,-0.194,0.139,0.055,0.1325,0.2185,0.203,0.2745,0.209,-0.039,-0.113,-0.0995,-0.32
0.2165,0.1585,-0.0575,-0.1875,0.137,0.0505,0.13,0.214,0.1985,0.268,0.205,-0.043,-0.1155,-0.0955,-0.321
0.2135,0.143,-0.0705,-0.1785,0.142,0.0365,0.1235,0.2105,0.1915,0.2605,0.199,-0.0495,-0.1145,-0.1085,-0.3235
0.191,0.1165,-0.0745,-0.154,0.1325,0.0215,0.12,0.2055,0.1865,0.257,0.195,-0.0565,-0.1145,-0.123,-0.322
0.1675,0.102,-0.0655,-0.135,0.116,0.0185,0.1215,0.205,0.188,0.259,0.1955,-0.0585,-0.1165,-0.1295,-0.324
0.1525,0.0965,-0.056,-0.1245,0.104,0.0205,0.1225,0.209,0.191,0.2615,0.197,-0.058,-0.1185,-0.1145,-0.3255
0.1335,0.068,-0.065,-0.101,0.099,0.002,0.114,0.202,0.184,0.2515,0.1875,-0.066,-0.1165,-0.123,-0.3235
0.1375,0.066,-0.071,-0.1015,0.104,-0.0025,0.1085,0.1955,0.1775,0.2445,0.181,-0.0705,-0.113,-0.1105,-0.3115
0.1555,0.099,-0.057,-0.127,0.106,0.021,0.122,0.2045,0.1885,0.2575,0.1945,-0.0565,-0.114,-0.1035,-0.3105
0.165,0.1115,-0.054,-0.1385,0.1095,0.029,0.13,0.212,0.194,0.266,0.203,-0.0455,-0.111,-0.106,-0.319
0.151,0.1045,-0.0465,-0.1275,0.0985,0.029,0.1255,0.208,0.1885,0.266,0.2035,-0.045,-0.1065,-0.0985,-0.314
0.11,0.0715,-0.039,-0.0905,0.0745,0.0165,0.1125,0.1965,0.1755,0.2575,0.193,-0.0585,-0.105,-0.1135,-0.3145
0.096,0.0495,-0.0465,-0.0725,0.071,0.002,0.101,0.188,0.1665,0.2475,0.1815,-0.071,-0.1035,-0.0965,-0.3165
0.12,0.079,-0.041,-0.0995,0.0805,0.019,0.106,0.194,0.1745,0.2545,0.1875,-0.0605,-0.102,-0.092,-0.315
0.138,0.103,-0.0355,-0.1205,0.0865,0.034,0.1125,0.1975,0.177,0.2565,0.1885,-0.0525,-0.1045,-0.098,-0.3135
0.155,0.1205,-0.0345,-0.138,0.0945,0.0435,0.1155,0.197,0.178,0.256,0.1885,-0.0515,-0.1055,-0.0895,-0.313
0.151,0.1215,-0.0295,-0.136,0.09,0.046,0.118,0.201,0.1785,0.2545,0.187,-0.049,-0.104,-0.092,-0.31
0.116,0.082,-0.0345,-0.099,0.075,0.024,0.111,0.192,0.1685,0.2425,0.178,-0.058,-0.1045,-0.1005,-0.316
0.1075,0.06,-0.0475,-0.084,0.077,0.007,0.096,0.178,0.155,0.231,0.1655,-0.0735,-0.106,-0.092,-0.3175
0.131,0.077,-0.054,-0.104,0.092,0.012,0.0955,0.1785,0.155,0.2315,0.1655,-0.071,-0.103,-0.0785,-0.309
0.1405,0.084,-0.0565,-0.112,0.098,0.014,0.0945,0.178,0.1565,0.2325,0.169,-0.0695,-0.101,-0.088,-0.3115
0.1375,0.075,-0.0625,-0.106,0.0995,0.0065,0.0915,0.176,0.1515,0.2295,0.166,-0.0745,-0.1035,-0.0935,-0.3095
0.1295,0.07,-0.059,-0.0995,0.094,0.0055,0.096,0.1785,0.152,0.2315,0.167,-0.071,-0.105,-0.099,-0.3105
0.1105,0.071,-0.039,-0.091,0.0745,0.016,0.106,0.188,0.162,0.2445,0.181,-0.0595,-0.1065,-0.099,-0.316
0.1135,0.074,-0.039,-0.0935,0.076,0.018,0.1105,0.1975,0.168,0.258,0.193,-0.0515,-0.1035,-0.102,-0.313
0.1305,0.0705,-0.06,-0.1005,0.095,0.0055,0.1065,0.1965,0.166,0.2565,0.1905,-0.054,-0.1025,-0.113,-0.3165
0.1385,0.0685,-0.07,-0.1035,0.104,-0.0005,0.106,0.1955,0.1625,0.2545,0.193,-0.0515,-0.102,-0.122,-0.3215
0.162,0.088,-0.074,-0.125,0.118,0.0075,0.1055,0.197,0.1605,0.2565,0.1915,-0.048,-0.1025,-0.1245,-0.3245
0.184,0.113,-0.071,-0.1485,0.127,0.0215,0.114,0.203,0.1655,0.2585,0.191,-0.0465,-0.1095,-0.1255,-0.329
0.1765,0.1095,-0.067,-0.143,0.1215,0.0215,0.112,0.2,0.1685,0.2615,0.1945,-0.0495,-0.11,-0.129,-0.329
0.16,0.097,-0.063,-0.1285,0.1115,0.0175,0.1045,0.1945,0.1675,0.2615,0.1935,-0.055,-0.1075,-0.117,-0.33
0.1445,0.0895,-0.0555,-0.117,0.1,0.017,0.105,0.1955,0.168,0.26,0.1965,-0.0595,-0.107,-0.1175,-0.3295
0.1465,0.088,-0.0585,-0.117,0.102,0.015,0.1025,0.1945,0.1655,0.2585,0.1965,-0.062,-0.1055,-0.12,-0.331
0.1545,0.0945,-0.06,-0.1245,0.107,0.0175,0.1025,0.192,0.1615,0.2545,0.1945,-0.0645,-0.106,-0.1205,-0.333
0.157,0.0985,-0.0585,-0.1275,0.1075,0.0205,0.102,0.19,0.1645,0.253,0.1925,-0.063,-0.105,-0.1045,-0.335
0.15,0.0975,-0.0525,-0.1235,0.101,0.0225,0.1025,0.191,0.1675,0.2575,0.1935,-0.0585,-0.102,-0.0725,-0.337
0.1425,0.0945,-0.048,-0.1185,0.095,0.0235,0.103,0.1895,0.168,0.261,0.195,-0.056,-0.0975,-0.082,-0.3345
0.142,0.0925,-0.05,-0.1175,0.096,0.0215,0.1035,0.1895,0.167,0.26,0.1965,-0.0525,-0.0925,-0.0985,-0.3335
0.1415,0.0945,-0.047,-0.118,0.094,0.024,0.1055,0.1935,0.168,0.2595,0.1955,-0.0535,-0.091,-0.102,-0.32
0.152,0.1085,-0.0435,-0.13,0.0975,0.0325,0.1105,0.1965,0.1725,0.261,0.1965,-0.0505,-0.0905,-0.106,-0.317
0.165,0.1145,-0.0505,-0.14,0.1075,0.032,0.112,0.198,0.1725,0.2595,0.194,-0.0495,-0.091,-0.102,-0.322
0.1605,0.0985,-0.062,-0.1295,0.111,0.0185,0.1075,0.192,0.164,0.2515,0.186,-0.0585,-0.094,-0.089,-0.3145
0.16,0.0965,-0.063,-0.1285,0.1115,0.017,0.1085,0.19,0.163,0.258,0.193,-0.057,-0.097,-0.0865,-0.3155
0.161,0.102,-0.059,-0.1315,0.1095,0.0215,0.113,0.194,0.1695,0.2685,0.2015,-0.0525,-0.0995,-0.099,-0.32
0.131,0.078,-0.053,-0.1045,0.0915,0.013,0.1075,0.1875,0.1565,0.2565,0.1955,-0.061,-0.102,-0.1025,-0.324
0.112,0.0605,-0.051,-0.0865,0.081,0.005,0.101,0.179,0.141,0.245,0.1865,-0.0675,-0.104,-0.1085,-0.325
0.111,0.0595,-0.051,-0.085,0.081,0.0045,0.107,0.1825,0.145,0.248,0.1855,-0.065,-0.1085,-0.1185,-0.3235
0.1085,0.0585,-0.0495,-0.0835,0.079,0.0045,0.11,0.185,0.1495,0.2475,0.1825,-0.0665,-0.1135,-0.1255,-0.3245
0.11,0.063,-0.047,-0.0865,0.078,0.008,0.1125,0.188,0.152,0.2425,0.182,-0.0645,-0.115,-0.1275,-0.327
0.1265,0.0715,-0.055,-0.099,0.0905,0.0085,0.117,0.1935,0.1585,0.247,0.189,-0.0585,-0.116,-0.118,-0.329
0.134,0.068,-0.066,-0.101,0.0995,0.0015,0.1145,0.1885,0.154,0.242,0.1855,-0.066,-0.1205,-0.116,-0.331
0.123,0.056,-0.067,-0.0895,0.0945,-0.0055,0.1095,0.182,0.1455,0.2385,0.1835,-0.07,-0.1205,-0.1165,-0.334
0.1235,0.0585,-0.065,-0.0915,0.094,-0.003,0.107,0.1785,0.1435,0.2405,0.1795,-0.073,-0.1215,-0.1155,-0.3345
0.12,0.0685,-0.051,-0.0945,0.0855,0.009,0.113,0.1825,0.144,0.2425,0.1805,-0.0705,-0.122,-0.118,-0.3375
0.107,0.0735,-0.0335,-0.09,0.07,0.02,0.1175,0.1885,0.147,0.2485,0.189,-0.059,-0.1165,-0.1145,-0.335
0.094,0.0685,-0.0255,-0.081,0.0595,0.022,0.114,0.1825,0.1435,0.247,0.1885,-0.0575,-0.1115,-0.119,-0.3285
0.098,0.0695,-0.0285,-0.0835,0.063,0.0205,0.11,0.18,0.14,0.2455,0.188,-0.0585,-0.1095,-0.1205,-0.3315
0.1255,0.0745,-0.051,-0.1,0.088,0.012,0.1055,0.1785,0.1375,0.2445,0.1845,-0.064,-0.111,-0.1245,-0.333
0.141,0.0775,-0.0635,-0.1095,0.102,0.007,0.102,0.1725,0.1335,0.24,0.177,-0.0705,-0.114,-0.1225,-0.3255
0.1315,0.076,-0.0555,-0.1035,0.093,0.0105,0.103,0.173,0.132,0.2375,0.175,-0.071,-0.1155,-0.0955,-0.3175
0.131,0.081,-0.05,-0.106,0.0905,0.016,0.106,0.1775,0.1335,0.239,0.18,-0.0665,-0.1155,-0.0895,-0.317
0.111,0.072,-0.039,-0.0915,0.075,0.017,0.1045,0.1755,0.1295,0.2355,0.177,-0.0695,-0.1185,-0.09,-0.3195
0.0995,0.0625,-0.0375,-0.081,0.068,0.013,0.1055,0.1725,0.126,0.2325,0.172,-0.0745,-0.125,-0.1035,-0.319
0.1235,0.0855,-0.0385,-0.1045,0.0805,0.024,0.1175,0.181,0.137,0.244,0.182,-0.0665,-0.127,-0.1245,-0.3145
0.1165,0.0875,-0.0295,-0.102,0.0725,0.0295,0.121,0.1835,0.1405,0.2515,0.1885,-0.065,-0.128,-0.128,-0.3115
0.123,0.083,-0.04,-0.103,0.0815,0.0215,0.115,0.174,0.1295,0.24,0.182,-0.071,-0.1295,-0.116,-0.309
0.1475,0.083,-0.0645,-0.1155,0.106,0.0095,0.109,0.168,0.1225,0.2285,0.1755,-0.078,-0.1295,-0.107,-0.306
0.148,0.0735,-0.0745,-0.111,0.111,-0.0005,0.1065,0.1665,0.123,0.2265,0.1735,-0.083,-0.1275,-0.1035,-0.306
0.13,0.0695,-0.0605,-0.1,0.095,0.0045,0.1135,0.1725,0.1285,0.2295,0.1735,-0.0845,-0.1295,-0.095,-0.3065
0.115,0.06,-0.0555,-0.0875,0.085,0.0025,0.116,0.1765,0.135,0.234,0.1705,-0.093,-0.1315,-0.102,-0.316
0.1085,0.05,-0.0585,-0.0795,0.083,-0.004,0.1175,0.1815,0.1415,0.239,0.166,-0.1005,-0.1335,-0.102,-0.3245
0.1165,0.0645,-0.0515,-0.0905,0.084,0.0065,0.1265,0.19,0.15,0.247,0.1665,-0.0995,-0.1375,-0.102,-0.33
0.134,0.086,-0.0475,-0.11,0.0905,0.0195,0.1325,0.194,0.158,0.252,0.164,-0.1025,-0.1405,-0.106,-0.337
0.1275,0.0945,-0.0325,-0.111,0.08,0.0315,0.14,0.199,0.166,0.256,0.1585,-0.1115,-0.1485,-0.108,-0.3485
0.104,0.0955,-0.0085,-0.1,0.056,0.0435,0.1465,0.206,0.176,0.2635,0.156,-0.118,-0.157,-0.103,-0.3585
0.0735,0.0855,0.012,-0.0795,0.0305,0.049,0.1475,0.204,0.177,0.2605,0.147,-0.132,-0.1665,-0.0905,-0.3655
0.0665,0.0865,0.0205,-0.0765,0.023,0.0535,0.1515,0.2025,0.1785,0.2595,0.1405,-0.1435,-0.177,-0.0805,-0.3755
0.073,0.1,0.027,-0.0865,0.023,0.0635,0.16,0.216,0.198,0.2805,0.1535,-0.1465,-0.183,-0.0705,-0.3905
0.0575,0.1055,0.048,-0.0815,0.0045,0.077,0.166,0.2225,0.211,0.299,0.168,-0.149,-0.1865,-0.07,-0.4035
0.039,0.11,0.0705,-0.0745,-0.016,0.0905,0.167,0.2205,0.2175,0.3175,0.1835,-0.149,-0.1845,-0.057,-0.408
0.0455,0.13,0.0845,-0.088,-0.0195,0.1075,0.1735,0.2275,0.2335,0.345,0.1995,-0.1425,-0.18,-0.0455,-0.4175
0.056,0.1475,0.091,-0.1015,-0.018,0.1195,0.1825,0.2325,0.2475,0.371,0.213,-0.1325,-0.1755,-0.049,-0.418
0.047,0.1375,0.0905,-0.0925,-0.022,0.114,0.175,0.2215,0.2425,0.39,0.235,-0.13,-0.1655,-0.0455,-0.429
0.0455,0.1325,0.087,-0.089,-0.0215,0.11,0.17,0.2105,0.2325,0.406,0.266,-0.126,-0.155,-0.0535,-0.4445
0.058,0.144,0.086,-0.101,-0.014,0.115,0.1745,0.214,0.2445,0.4375,0.3125,-0.1105,-0.142,-0.0595,-0.4505
0.094,0.175,0.0805,-0.1345,0.0065,0.128,0.1775,0.227,0.2695,0.4865,0.367,-0.0885,-0.123,-0.042,-0.4725
0.118,0.2165,0.0985,-0.167,0.0095,0.1575,0.18,0.2335,0.293,0.553,0.4465,-0.0555,-0.0985,-0.0315,-0.493
0.104,0.2275,0.124,-0.166,-0.01,0.176,0.1735,0.228,0.302,0.612,0.5295,-0.0215,-0.0675,-0.035,-0.5095
0.107,0.233,0.126,-0.17,-0.01,0.18,0.1715,0.236,0.3115,0.6585,0.5935,0.005,-0.0395,-0.0235,-0.5235
0.1175,0.2465,0.129,-0.182,-0.006,0.188,0.1665,0.25,0.33,0.719,0.6655,0.0335,-0.007,0.0,-0.538
0.137,0.262,0.125,-0.1995,0.006,0.194,0.1525,0.2585,0.353,0.7995,0.7555,0.0745,0.039,0.006,-0.552
0.156,0.2615,0.106,-0.209,0.0245,0.184,0.1435,0.2775,0.3855,0.887,0.8465,0.1075,0.0855,0.0075,-0.569
0.144,0.2335,0.0895,-0.189,0.027,0.162,0.1195,0.2855,0.402,0.9635,0.935,0.142,0.141,0.007,-0.579
0.1505,0.2305,0.08,-0.1905,0.035,0.1555,0.0885,0.2795,0.4065,1.042,1.036,0.201,0.21,-0.003,-0.578
0.1835,0.249,0.0655,-0.2165,0.059,0.1575,0.058,0.2755,0.4255,1.133,1.141,0.26,0.2785,0.0105,-0.5885
0.228,0.258,0.03,-0.243,0.099,0.144,0.0255,0.271,0.4375,1.2085,1.2305,0.3145,0.3445,0.013,-0.584
0.2705,0.264,-0.006,-0.267,0.138,0.129,0.01,0.281,0.451,1.268,1.2965,0.364,0.3985,-0.0055,-0.575
0.324,0.2965,-0.028,-0.3105,0.176,0.1345,0.002,0.3095,0.498,1.357,1.392,0.4355,0.4665,0.0015,-0.5755
0.389,0.332,-0.0575,-0.3605,0.223,0.1375,-0.024,0.329,0.534,1.4465,1.505,0.5265,0.552,0.008,-0.575
0.43,0.3335,-0.0965,-0.382,0.263,0.119,-0.049,0.352,0.558,1.496,1.558,0.589,0.617,0.0035,-0.5675
0.451,0.3245,-0.126,-0.388,0.2885,0.0995,-0.0785,0.3895,0.608,1.5405,1.6065,0.651,0.681,0.009,-0.5605
0.492,0.343,-0.1485,-0.4175,0.32,0.098,-0.116,0.4095,0.6465,1.589,1.681,0.7365,0.7585,0.019,-0.565
0.5575,0.3755,-0.182,-0.4665,0.3695,0.097,-0.156,0.4165,0.6645,1.615,1.7395,0.8265,0.837,0.012,-0.551
0.5955,0.375,-0.2205,-0.4855,0.408,0.0775,-0.198,0.448,0.712,1.6495,1.805,0.919,0.923,0.006,-0.5395
0.636,0.3685,-0.2675,-0.502,0.4515,0.0505,-0.234,0.4895,0.7485,1.66,1.8555,1.01,1.0045,0.013,-0.523
0.706,0.37,-0.336,-0.538,0.5205,0.017,-0.274,0.516,0.7555,1.6225,1.86,1.0895,1.075,0.0085,-0.4845
0.764,0.3385,-0.4255,-0.5515,0.595,-0.0435,-0.307,0.528,0.7485,1.529,1.7805,1.1375,1.113,-0.0315,-0.4315
0.8225,0.285,-0.5375,-0.554,0.6795,-0.1255,-0.3395,0.522,0.695,1.354,1.6105,1.1565,1.1175,-0.104,-0.3495
0.861,0.1575,-0.7035,-0.5095,0.782,-0.2725,-0.353,0.5445,0.646,1.136,1.339,1.125,1.0845,-0.198,-0.255
0.881,0.006,-0.875,-0.4435,0.8775,-0.434,-0.337,0.6105,0.6375,0.9185,1.0135,1.066,1.022,-0.312,-0.16
0.9205,-0.097,-1.0175,-0.412,0.969,-0.557,-0.3205,0.655,0.614,0.6895,0.691,1.017,0.955,-0.42,-0.0605
0.956,-0.2105,-1.1665,-0.3725,1.061,-0.6885,-0.3025,0.6885,0.594,0.482,0.3745,0.954,0.882,-0.513,0.027
0.9975,-0.269,-1.2665,-0.3645,1.132,-0.7675,-0.314,0.6745,0.566,0.328,0.1615,0.9195,0.8415,-0.567,0.0935
1.055,-0.287,-1.3415,-0.384,1.198,-0.814,-0.37,0.578,0.4875,0.1845,0.0275,0.916,0.8395,-0.587,0.1565
1.089,-0.309,-1.398,-0.39,1.2435,-0.8535,-0.406,0.4845,0.3955,0.031,-0.1005,0.8965,0.819,-0.6015,0.207
1.085,-0.333,-1.4175,-0.376,1.251,-0.875,-0.4245,0.3635,0.23,-0.172,-0.2475,0.856,0.7665,-0.598,0.27
1.073,-0.3675,-1.44,-0.353,1.2565,-0.9035,-0.4635,0.173,-0.0135,-0.3775,-0.3885,0.8125,0.715,-0.5925,0.3725
1.07,-0.407,-1.4765,-0.3315,1.2735,-0.942,-0.488,-0.0425,-0.3255,-0.633,-0.544,0.7565,0.645,-0.636,0.4685
1.0675,-0.4605,-1.528,-0.3035,1.2975,-0.994,-0.503,-0.252,-0.714,-0.973,-0.743,0.6795,0.556,-0.693,0.5785
1.0685,-0.4945,-1.5625,-0.287,1.3155,-1.0285,-0.5225,-0.4515,-1.085,-1.274,-0.905,0.6175,0.4845,-0.7105,0.7045
1.05,-0.5395,-1.5885,-0.2555,1.3195,-1.064,-0.533,-0.6205,-1.405,-1.5205,-1.055,0.5435,0.4045,-0.747,0.822
1.0135,-0.6125,-1.6255,-0.2005,1.3195,-1.119,-0.5375,-0.742,-1.6415,-1.7,-1.1835,0.46,0.3285,-0.8055,0.92
0.985,-0.6825,-1.667,-0.151,1.326,-1.1745,-0.5325,-0.846,-1.8425,-1.8615,-1.3005,0.3845,0.2595,-0.854,1.0
0.9575,-0.7535,-1.71,-0.102,1.334,-1.232,-0.5205,-0.905,-1.9885,-1.9895,-1.408,0.3075,0.196,-0.8995,1.065
0.935,-0.8105,-1.745,-0.0625,1.34,-1.2775,-0.4985,-0.9045,-2.025,-2.024,-1.456,0.2535,0.1545,-0.943,1.089
0.9335,-0.8445,-1.777,-0.0445,1.3555,-1.311,-0.454,-0.877,-2.0205,-2.0255,-1.4815,0.212,0.1175,-0.9715,1.094
0.933,-0.8485,-1.781,-0.042,1.357,-1.315,-0.422,-0.875,-2.014,-2.0185,-1.497,0.169,0.081,-0.9675,1.0865
0.9125,-0.8545,-1.7665,-0.029,1.3395,-1.3105,-0.4145,-0.9145,-2.0365,-2.027,-1.5205,0.1165,0.037,-0.971,1.084
0.867,-0.883,-1.75,0.008,1.3085,-1.3165,-0.402,-0.925,-2.023,-2.0045,-1.525,0.0685,0.002,-0.988,1.078
0.833,-0.8905,-1.723,0.029,1.278,-1.3065,-0.3885,-0.935,-1.9965,-1.9695,-1.5195,0.0125,-0.0355,-0.9815,1.0615
0.837,-0.8725,-1.709,0.0175,1.2735,-1.291,-0.388,-0.948,-1.9755,-1.9325,-1.499,-0.0175,-0.0535,-0.971,1.049
0.8355,-0.8455,-1.6805,0.005,1.258,-1.263,-0.387,-0.9435,-1.927,-1.868,-1.456,-0.02,-0.0525,-0.957,1.0265
0.8225,-0.8145,-1.637,-0.004,1.23,-1.226,-0.37,-0.912,-1.8545,-1.7865,-1.407,-0.0305,-0.057,-0.9185,0.9825
0.8095,-0.7735,-1.583,-0.018,1.196,-1.178,-0.342,-0.863,-1.7575,-1.6875,-1.348,-0.0465,-0.065,-0.879,0.9185
0.7935,-0.7375,-1.5305,-0.028,1.162,-1.1335,-0.323,-0.8425,-1.6845,-1.6065,-1.2965,-0.073,-0.08,-0.859,0.8665
0.7545,-0.724,-1.4775,-0.015,1.116,-1.101,-0.3155,-0.856,-1.635,-1.548,-1.2495,-0.102,-0.098,-0.8365,0.831
0.705,-0.7055,-1.41,0.0,1.0575,-1.0575,-0.3105,-0.8705,-1.585,-1.487,-1.2045,-0.134,-0.1215,-0.804,0.8025
0.6855,-0.66,-1.345,-0.013,1.015,-1.0025,-0.297,-0.8545,-1.518,-1.4095,-1.1525,-0.1545,-0.142,-0.7675,0.7665
0.6565,-0.623,-1.2795,-0.017,0.9675,-0.951,-0.28,-0.8385,-1.4645,-1.348,-1.1185,-0.184,-0.1715,-0.7425,0.7425
0.632,-0.606,-1.238,-0.013,0.9345,-0.922,-0.265,-0.8005,-1.4025,-1.2815,-1.0745,-0.2055,-0.1805,-0.7315,0.719
0.5985,-0.6065,-1.205,0.004,0.9015,-0.9055,-0.2385,-0.746,-1.325,-1.21,-1.025,-0.2235,-0.182,-0.7105,0.678
0.5555,-0.599,-1.1545,0.0215,0.8545,-0.8765,-0.211,-0.701,-1.247,-1.136,-0.975,-0.242,-0.19,-0.694,0.6275
0.5385,-0.57,-1.1085,0.0155,0.823,-0.8385,-0.188,-0.652,-1.1585,-1.05,-0.9105,-0.2415,-0.188,-0.672,0.5745
0.5255,-0.547,-1.073,0.011,0.799,-0.8095,-0.168,-0.599,-1.079,-0.976,-0.8515,-0.2355,-0.1805,-0.649,0.541
0.52,-0.5135,-1.0335,-0.003,0.7765,-0.7735,-0.1515,-0.546,-0.996,-0.898,-0.7875,-0.2225,-0.168,-0.635,0.4955
0.5055,-0.489,-0.9945,-0.0085,0.75,-0.7415,-0.137,-0.4845,-0.908,-0.8145,-0.717,-0.2085,-0.1505,-0.6145,0.441
0.481,-0.4735,-0.9545,-0.004,0.7175,-0.7135,-0.13,-0.424,-0.824,-0.733,-0.65,-0.195,-0.1335,-0.587,0.4005
0.449,-0.4485,-0.8975,0.0,0.673,-0.673,-0.1235,-0.375,-0.7485,-0.6595,-0.5935,-0.189,-0.1275,-0.5525,0.3575
0.422,-0.416,-0.838,-0.003,0.63,-0.6265,-0.111,-0.3145,-0.6665,-0.5825,-0.5305,-0.1785,-0.1195,-0.5285,0.3105
0.3995,-0.38,-0.78,-0.01,0.5895,-0.5795,-0.095,-0.2515,-0.5885,-0.51,-0.4735,-0.173,-0.1195,-0.504,0.263
0.3815,-0.3415,-0.7235,-0.02,0.552,-0.532,-0.0745,-0.188,-0.5165,-0.4445,-0.4225,-0.171,-0.1235,-0.4625,0.219
0.381,-0.2935,-0.6745,-0.0435,0.5275,-0.484,-0.0575,-0.1335,-0.444,-0.378,-0.3695,-0.166,-0.1275,-0.4335,0.1795
0.3765,-0.2405,-0.617,-0.068,0.4965,-0.4285,-0.0545,-0.1025,-0.3865,-0.3195,-0.319,-0.1585,-0.1285,-0.4045,0.137
0.365,-0.1835,-0.549,-0.091,0.4565,-0.366,-0.047,-0.075,-0.333,-0.2635,-0.27,-0.142,-0.125,-0.369,0.0975
0.327,-0.1555,-0.4825,-0.0855,0.4045,-0.319,-0.036,-0.0545,-0.289,-0.2205,-0.2365,-0.1455,-0.134,-0.3405,0.0625
0.2795,-0.1565,-0.436,-0.0615,0.3575,-0.296,-0.031,-0.0425,-0.2575,-0.1875,-0.213,-0.1585,-0.1405,-0.3105,0.028
0.239,-0.161,-0.4005,-0.039,0.3195,-0.2805,-0.0235,-0.021,-0.2215,-0.151,-0.186,-0.1645,-0.142,-0.296,-0.0115
0.217,-0.153,-0.37,-0.032,0.293,-0.261,-0.0085,0.0005,-0.1835,-0.1115,-0.1525,-0.1685,-0.145,-0.291,-0.0485
0.2085,-0.1385,-0.347,-0.035,0.277,-0.2425,0.012,0.018,-0.15,-0.081,-0.1255,-0.172,-0.148,-0.277,-0.064
0.1935,-0.12,-0.313,-0.037,0.253,-0.216,0.028,0.038,-0.1175,-0.0475,-0.0955,-0.166,-0.147,-0.2615,-0.0875
0.197,-0.08,-0.277,-0.0585,0.237,-0.1785,0.046,0.0625,-0.077,-0.002,-0.058,-0.15,-0.1445,-0.242,-0.1165
0.197,-0.059,-0.256,-0.069,0.226,-0.157,0.063,0.0845,-0.045,0.027,-0.035,-0.145,-0.1465,-0.233,-0.1355
0.1725,-0.0665,-0.239,-0.0535,0.2055,-0.1525,0.074,0.0975,-0.029,0.0415,-0.0225,-0.1455,-0.15,-0.229,-0.1495
0.159,-0.0545,-0.2135,-0.0525,0.186,-0.1335,0.093,0.12,0.001,0.068,0.0015,-0.133,-0.1495,-0.2195,-0.1605
0.173,-0.0195,-0.1925,-0.077,0.1825,-0.1055,0.1115,0.1455,0.0355,0.0995,0.029,-0.1185,-0.147,-0.2275,-0.1885
0.2005,0.0055,-0.195,-0.103,0.1975,-0.0945,0.123,0.161,0.0555,0.118,0.044,-0.1175,-0.1495,-0.229,-0.2065
0.216,0.0145,-0.2015,-0.1155,0.2085,-0.093,0.132,0.176,0.071,0.131,0.056,-0.1195,-0.15,-0.219,-0.223
0.1925,0.0085,-0.1845,-0.1005,0.188,-0.088,0.133,0.181,0.078,0.133,0.0605,-0.123,-0.153,-0.2085,-0.2405
0.152,-0.022,-0.174,-0.065,0.1625,-0.098,0.1275,0.178,0.073,0.1305,0.061,-0.125,-0.1515,-0.202,-0.243
0.132,-0.034,-0.166,-0.049,0.1485,-0.0995,0.123,0.178,0.0715,0.135,0.067,-0.1225,-0.147,-0.199,-0.257
0.1225,-0.0275,-0.1505,-0.0475,0.136,-0.0885,0.1225,0.179,0.084,0.147,0.075,-0.1215,-0.147,-0.1915,-0.2565
0.1105,-0.03,-0.1405,-0.0405,0.125,-0.0845,0.117,0.1765,0.0925,0.1585,0.083,-0.117,-0.1405,-0.1795,-0.2585
0.102,-0.028,-0.13,-0.037,0.116,-0.0785,0.108,0.171,0.088,0.1555,0.0805,-0.1155,-0.1355,-0.168,-0.271
0.0995,-0.0255,-0.125,-0.037,0.112,-0.075,0.1035,0.1665,0.0845,0.15,0.074,-0.1185,-0.1345,-0.1585,-0.2665
0.1175,-0.0125,-0.13,-0.0525,0.1235,-0.071,0.0995,0.1635,0.086,0.149,0.072,-0.119,-0.1305,-0.155,-0.268
0.1425,0.0055,-0.137,-0.074,0.1395,-0.0655,0.098,0.165,0.0905,0.149,0.0745,-0.1205,-0.1315,-0.144,-0.275
0.139,0.0055,-0.1335,-0.072,0.136,-0.064,0.0965,0.1615,0.091,0.1505,0.075,-0.125,-0.136,-0.1435,-0.273
0.1205,-0.0035,-0.124,-0.0585,0.122,-0.0635,0.1015,0.1635,0.0965,0.158,0.075,-0.1225,-0.1395,-0.1615,-0.275
0.125,0.0055,-0.1195,-0.0655,0.122,-0.0565,0.1085,0.1685,0.101,0.16,0.0785,-0.115,-0.14,-0.154,-0.2735
0.135,0.015,-0.12,-0.075,0.1275,-0.0525,0.108,0.1715,0.0995,0.165,0.0855,-0.11,-0.138,-0.1525,-0.2715
0.1395,0.0175,-0.1225,-0.0785,0.1305,-0.052,0.109,0.174,0.1035,0.175,0.0945,-0.1105,-0.135,-0.149,-0.2795
0.1555,0.023,-0.1325,-0.089,0.144,-0.0545,0.107,0.1725,0.104,0.1755,0.094,-0.1185,-0.136,-0.1535,-0.277
0.1675,0.029,-0.1385,-0.098,0.1525,-0.0545,0.113,0.1745,0.107,0.1785,0.096,-0.1205,-0.143,-0.1665,-0.275
0.1605,0.032,-0.1285,-0.0965,0.144,-0.048,0.1205,0.18,0.1145,0.1855,0.1025,-0.116,-0.146,-0.151,-0.2785
0.1455,0.026,-0.1195,-0.0855,0.132,-0.0465,0.121,0.183,0.119,0.1885,0.1065,-0.117,-0.147,-0.1445,-0.282
0.1285,0.021,-0.1075,-0.0745,0.1175,-0.043,0.1215,0.182,0.12,0.188,0.1105,-0.1175,-0.149,-0.162,-0.289
0.117,0.022,-0.0945,-0.0695,0.1055,-0.036,0.123,0.185,0.126,0.1945,0.114,-0.114,-0.1485,-0.1755,-0.2935
0.1305,0.026,-0.105,-0.0785,0.1175,-0.039,0.123,0.1865,0.1305,0.2,0.118,-0.116,-0.1455,-0.179,-0.3
0.148,0.013,-0.135,-0.0805,0.1415,-0.061,0.1195,0.1815,0.127,0.197,0.1165,-0.1215,-0.141,-0.183,-0.3005
0.1615,0.014,-0.1475,-0.0875,0.1545,-0.067,0.124,0.1875,0.1325,0.2015,0.119,-0.117,-0.1365,-0.179,-0.2955
0.1385,0.009,-0.1295,-0.0735,0.1335,-0.06,0.1255,0.189,0.137,0.206,0.123,-0.1145,-0.135,-0.1835,-0.2955
0.1155,0.0025,-0.113,-0.059,0.114,-0.055,0.1255,0.1905,0.1405,0.2095,0.1255,-0.111,-0.1355,-0.18,-0.2995
0.119,0.021,-0.098,-0.07,0.1085,-0.0385,0.133,0.198,0.1465,0.214,0.131,-0.102,-0.1385,-0.167,-0.299
0.113,0.0275,-0.0855,-0.0705,0.099,-0.029,0.1365,0.2025,0.147,0.215,0.12,-0.104,-0.1455,-0.173,-0.2965
0.127,0.047,-0.08,-0.087,0.1035,-0.0165,0.1405,0.2055,0.149,0.217,0.1135,-0.106,-0.1505,-0.172,-0.2975
0.1295,0.058,-0.0715,-0.0935,0.1,-0.0065,0.1375,0.1975,0.146,0.213,0.1125,-0.1105,-0.153,-0.1605,-0.297
0.095,0.03,-0.065,-0.0625,0.0795,-0.017,0.122,0.1815,0.134,0.1995,0.103,-0.1235,-0.1525,-0.151,-0.2925
0.078,0.008,-0.0705,-0.043,0.074,-0.031,0.1165,0.175,0.1285,0.192,0.1,-0.129,-0.149,-0.1495,-0.293
0.102,0.0195,-0.0825,-0.0605,0.092,-0.0315,0.123,0.184,0.1355,0.194,0.1065,-0.1255,-0.149,-0.146,-0.293
0.107,0.024,-0.083,-0.0655,0.0945,-0.0295,0.123,0.184,0.1375,0.1955,0.115,-0.128,-0.1515,-0.1395,-0.286
0.093,0.0205,-0.0725,-0.0565,0.0825,-0.0255,0.1215,0.1805,0.1375,0.1985,0.1195,-0.129,-0.1535,-0.1425,-0.293
0.088,0.0215,-0.0665,-0.055,0.077,-0.0225,0.12,0.18,0.138,0.202,0.121,-0.1275,-0.1555,-0.1495,-0.2975
0.0755,0.0155,-0.06,-0.0455,0.0675,-0.022,0.1245,0.1845,0.1415,0.208,0.128,-0.1235,-0.158,-0.1495,-0.2955
0.073,0.018,-0.055,-0.0455,0.064,-0.018,0.1345,0.1945,0.152,0.217,0.1385,-0.112,-0.1545,-0.148,-0.292
0.102,0.028,-0.074,-0.065,0.0875,-0.0225,0.1335,0.195,0.155,0.2195,0.141,-0.1095,-0.149,-0.145,-0.2935
0.122,0.0255,-0.0965,-0.074,0.109,-0.035,0.128,0.1905,0.1505,0.214,0.135,-0.1155,-0.1475,-0.1395,-0.293
0.1145,0.02,-0.0945,-0.067,0.1045,-0.037,0.1265,0.191,0.153,0.215,0.133,-0.1145,-0.144,-0.138,-0.289
0.099,0.0145,-0.0845,-0.0565,0.0915,-0.0345,0.1255,0.1905,0.1575,0.2165,0.1315,-0.1155,-0.1435,-0.135,-0.3
0.0795,0.0,-0.0795,-0.04,0.079,-0.0395,0.125,0.191,0.163,0.221,0.1325,-0.1195,-0.1425,-0.1435,-0.305
0.0675,-0.0075,-0.075,-0.03,0.071,-0.041,0.131,0.1995,0.171,0.2295,0.1375,-0.1145,-0.141,-0.155,-0.3065
0.078,-0.0055,-0.083,-0.036,0.08,-0.044,0.1295,0.195,0.1675,0.223,0.132,-0.121,-0.1465,-0.1525,-0.3075
0.111,0.017,-0.094,-0.064,0.102,-0.0385,0.1315,0.1945,0.166,0.2225,0.133,-0.1195,-0.1505,-0.155,-0.3065
0.1215,0.0245,-0.0965,-0.073,0.1085,-0.0355,0.1305,0.1925,0.1615,0.22,0.1285,-0.1165,-0.1495,-0.162,-0.3025
0.118,0.0155,-0.1025,-0.0665,0.11,-0.0435,0.124,0.184,0.1535,0.214,0.1185,-0.1235,-0.149,-0.157,-0.3025
0.121,0.023,-0.098,-0.072,0.109,-0.037,0.125,0.187,0.153,0.21,0.1225,-0.1205,-0.148,-0.1505,-0.3025
0.11,0.0265,-0.0835,-0.0685,0.0965,-0.028,0.1245,0.1895,0.1555,0.2115,0.128,-0.1195,-0.147,-0.1475,-0.296
0.1015,0.025,-0.0765,-0.063,0.0885,-0.0255,0.1245,0.191,0.163,0.222,0.1345,-0.12,-0.148,-0.14,-0.295
0.076,0.0075,-0.0685,-0.0415,0.072,-0.03,0.124,0.194,0.1655,0.224,0.136,-0.122,-0.149,-0.1465,-0.2985
0.062,-0.003,-0.065,-0.0295,0.063,-0.034,0.1185,0.1895,0.1615,0.2175,0.1305,-0.127,-0.15,-0.1505,-0.301
0.0725,-0.006,-0.078,-0.0335,0.0745,-0.0415,0.111,0.1805,0.1525,0.209,0.123,-0.135,-0.1535,-0.136,-0.3005
0.084,0.0005,-0.0835,-0.0425,0.0835,-0.0415,0.114,0.1815,0.15,0.2065,0.1205,-0.1355,-0.157,-0.1335,-0.3005
0.101,0.022,-0.079,-0.0615,0.0895,-0.028,0.121,0.1885,0.158,0.2105,0.125,-0.1295,-0.1585,-0.1475,-0.298
0.108,0.025,-0.083,-0.0665,0.0955,-0.029,0.1195,0.1915,0.1645,0.2135,0.126,-0.128,-0.156,-0.1415,-0.299
0.099,0.0115,-0.0875,-0.055,0.093,-0.0375,0.114,0.191,0.165,0.211,0.122,-0.129,-0.1525,-0.1335,-0.2955
0.085,-0.006,-0.091,-0.0395,0.0875,-0.048,0.1105,0.187,0.1575,0.206,0.1145,-0.132,-0.155,-0.151,-0.294
0.086,-0.0035,-0.0895,-0.041,0.0875,-0.046,0.113,0.188,0.1575,0.208,0.1145,-0.1295,-0.155,-0.162,-0.2965
0.0885,0.006,-0.0825,-0.0475,0.085,-0.0375,0.1185,0.1955,0.166,0.214,0.1215,-0.127,-0.1535,-0.153,-0.293
0.0875,0.007,-0.08,-0.047,0.0835,-0.036,0.1195,0.1965,0.1675,0.215,0.124,-0.1305,-0.152,-0.15,-0.2975
0.093,0.009,-0.084,-0.051,0.0885,-0.037,0.119,0.197,0.171,0.2195,0.128,-0.1275,-0.149,-0.1635,-0.3025
0.1105,0.017,-0.094,-0.064,0.102,-0.0385,0.1235,0.2015,0.1795,0.2305,0.133,-0.121,-0.147,-0.168,-0.308
0.101,0.0185,-0.082,-0.0595,0.0915,-0.0315,0.127,0.2055,0.185,0.2335,0.136,-0.1175,-0.147,-0.1675,-0.311
0.105,0.034,-0.0715,-0.0695,0.088,-0.0185,0.1355,0.2135,0.1915,0.237,0.1435,-0.11,-0.1475,-0.165,-0.3085
0.123,0.047,-0.076,-0.085,0.0995,-0.0145,0.135,0.2145,0.194,0.238,0.147,-0.109,-0.1465,-0.1605,-0.313
0.105,0.029,-0.076,-0.067,0.0905,-0.023,0.126,0.207,0.1895,0.23,0.1385,-0.1185,-0.1475,-0.158,-0.3075
0.09,0.0125,-0.0775,-0.0515,0.0835,-0.032,0.1225,0.202,0.1865,0.225,0.131,-0.122,-0.147,-0.1545,-0.303
0.071,0.0015,-0.069,-0.036,0.0695,-0.0335,0.1225,0.2015,0.187,0.227,0.132,-0.1205,-0.147,-0.146,-0.31
0.0695,0.004,-0.0655,-0.0365,0.067,-0.0305,0.126,0.204,0.1905,0.23,0.136,-0.1165,-0.1455,-0.1345,-0.31
0.085,0.0125,-0.0725,-0.049,0.0785,-0.03,0.127,0.205,0.1955,0.2325,0.1395,-0.116,-0.146,-0.138,-0.3055
0.1095,0.0235,-0.086,-0.0665,0.0975,-0.031,0.1235,0.2055,0.199,0.2335,0.136,-0.121,-0.147,-0.1385,-0.304
0.12,0.0225,-0.098,-0.0715,0.1085,-0.0375,0.122,0.205,0.1985,0.2285,0.13,-0.127,-0.149,-0.1465,-0.306
0.124,0.0305,-0.093,-0.0775,0.108,-0.031,0.1275,0.2135,0.208,0.2365,0.138,-0.119,-0.148,-0.1455,-0.309
0.131,0.041,-0.09,-0.086,0.1105,-0.0245,0.13,0.217,0.213,0.24,0.1425,-0.1135,-0.1455,-0.1415,-0.304
0.115,0.019,-0.096,-0.067,0.1055,-0.0385,0.126,0.212,0.2055,0.234,0.1385,-0.119,-0.149,-0.1455,-0.2975
0.124,0.025,-0.099,-0.0745,0.111,-0.0365,0.1305,0.2175,0.215,0.243,0.1475,-0.1115,-0.146,-0.1405,-0.3015
0.1255,0.0335,-0.092,-0.0795,0.1085,-0.0285,0.137,0.223,0.2205,0.246,0.152,-0.107,-0.147,-0.152,-0.303
0.1015,0.018,-0.0835,-0.0595,0.092,-0.0325,0.137,0.221,0.213,0.237,0.1465,-0.11,-0.151,-0.157,-0.3035
0.099,0.0165,-0.0825,-0.0575,0.0905,-0.033,0.1345,0.2175,0.206,0.23,0.1435,-0.111,-0.151,-0.155,-0.305
0.1085,0.025,-0.0835,-0.067,0.0955,-0.029,0.134,0.2185,0.205,0.2295,0.143,-0.111,-0.153,-0.1575,-0.304
0.114,0.0365,-0.077,-0.0755,0.0955,-0.02,0.137,0.2245,0.215,0.241,0.1515,-0.105,-0.151,-0.1565,-0.307
0.1045,0.033,-0.0715,-0.0685,0.0875,-0.019,0.138,0.227,0.2215,0.251,0.1585,-0.1035,-0.1485,-0.156,-0.307
0.0805,0.012,-0.0685,-0.046,0.0745,-0.028,0.134,0.224,0.2205,0.249,0.1575,-0.107,-0.1445,-0.156,-0.3105
0.0625,0.0025,-0.0605,-0.0325,0.061,-0.029,0.129,0.2195,0.218,0.2495,0.156,-0.1125,-0.142,-0.1385,-0.315
0.0815,0.019,-0.063,-0.05,0.072,-0.0215,0.135,0.2265,0.2275,0.2555,0.156,-0.11,-0.1435,-0.138,-0.3115
0.114,0.048,-0.0665,-0.081,0.09,-0.0085,0.141,0.2345,0.236,0.259,0.159,-0.106,-0.145,-0.151,-0.3135
0.103,0.038,-0.065,-0.0705,0.084,-0.0135,0.136,0.2285,0.2305,0.256,0.156,-0.1115,-0.1445,-0.1475,-0.315
0.083,0.0135,-0.0695,-0.048,0.076,-0.028,0.129,0.222,0.2225,0.2495,0.148,-0.1185,-0.1435,-0.15,-0.314
0.0945,0.0205,-0.074,-0.0575,0.084,-0.0265,0.132,0.225,0.223,0.252,0.15,-0.1175,-0.1435,-0.151,-0.3135
0.1085,0.033,-0.0755,-0.071,0.0915,-0.021,0.1385,0.2325,0.2305,0.2575,0.1555,-0.109,-0.143,-0.1545,-0.311
0.088,0.0145,-0.0735,-0.051,0.0805,-0.0295,0.1285,0.2235,0.2195,0.2465,0.1445,-0.1195,-0.144,-0.1545,-0.3075
0.0705,-0.012,-0.0825,-0.029,0.076,-0.047,0.115,0.207,0.198,0.2305,0.129,-0.1345,-0.1445,-0.146,-0.3065
0.0845,0.001,-0.084,-0.0425,0.084,-0.041,0.1115,0.208,0.199,0.2295,0.1305,-0.134,-0.141,-0.1435,-0.308
0.105,0.0215,-0.0835,-0.063,0.094,-0.031,0.1165,0.219,0.212,0.238,0.1415,-0.125,-0.1365,-0.141,-0.3085
0.112,0.0225,-0.0895,-0.0675,0.1005,-0.0335,0.1185,0.2195,0.213,0.239,0.141,-0.1245,-0.138,-0.1435,-0.3065
0.115,0.022,-0.093,-0.0685,0.104,-0.0355,0.122,0.22,0.212,0.2375,0.138,-0.1265,-0.142,-0.1455,-0.3005
0.1255,0.0255,-0.1,-0.0755,0.1125,-0.037,0.127,0.226,0.22,0.2425,0.143,-0.1235,-0.1435,-0.146,-0.3045
0.1255,0.0275,-0.0975,-0.0765,0.111,-0.0345,0.129,0.2305,0.2275,0.249,0.1475,-0.1225,-0.1465,-0.1555,-0.311
0.123,0.026,-0.097,-0.0745,0.11,-0.035,0.13,0.2345,0.2335,0.256,0.1515,-0.121,-0.1475,-0.1565,-0.316
0.102,0.0145,-0.0875,-0.0585,0.0945,-0.036,0.1345,0.24,0.2435,0.2645,0.1565,-0.1185,-0.145,-0.16,-0.3215
0.0795,0.006,-0.0735,-0.043,0.0765,-0.0335,0.1405,0.248,0.2545,0.278,0.1625,-0.1085,-0.141,-0.1555,-0.3185
0.0835,0.0025,-0.081,-0.043,0.082,-0.039,0.14,0.2485,0.256,0.2795,0.162,-0.105,-0.1375,-0.154,-0.32
0.0965,0.001,-0.0955,-0.049,0.096,-0.047,0.1345,0.247,0.2545,0.2755,0.1595,-0.107,-0.1345,-0.1605,-0.324
0.0985,-0.0015,-0.1,-0.0485,0.099,-0.0505,0.128,0.242,0.251,0.2695,0.1525,-0.113,-0.1345,-0.156,-0.3275
0.09,0.004,-0.086,-0.047,0.0875,-0.0405,0.131,0.2445,0.2535,0.268,0.152,-0.115,-0.1385,-0.1575,-0.329
0.076,0.01,-0.066,-0.043,0.0705,-0.0275,0.137,0.2505,0.258,0.273,0.1555,-0.11,-0.1405,-0.1605,-0.3235
0.073,0.013,-0.06,-0.043,0.066,-0.023,0.136,0.248,0.2535,0.271,0.1525,-0.113,-0.1405,-0.151,-0.3155
0.081,0.0115,-0.07,-0.046,0.0755,-0.029,0.125,0.24,0.241,0.263,0.1455,-0.123,-0.142,-0.15,-0.3145
0.0805,0.005,-0.075,-0.043,0.0775,-0.035,0.1205,0.2365,0.235,0.263,0.1455,-0.129,-0.1425,-0.152,-0.3185
0.097,0.0125,-0.0845,-0.055,0.0905,-0.0355,0.1205,0.2355,0.2375,0.2685,0.149,-0.1315,-0.143,-0.141,-0.3125
0.117,0.025,-0.092,-0.071,0.1045,-0.0335,0.118,0.2355,0.2375,0.267,0.1465,-0.133,-0.145,-0.1485,-0.319
0.12,0.033,-0.0865,-0.0765,0.103,-0.0265,0.122,0.242,0.2405,0.2685,0.1505,-0.1305,-0.1445,-0.1475,-0.3275
0.1205,0.039,-0.0815,-0.08,0.101,-0.021,0.1305,0.2515,0.2495,0.275,0.1575,-0.1235,-0.144,-0.1415,-0.322
0.1255,0.0475,-0.0785,-0.0865,0.102,-0.0155,0.1355,0.2595,0.2595,0.2825,0.1635,-0.115,-0.1415,-0.1465,-0.324
0.1265,0.039,-0.0875,-0.0825,0.1065,-0.024,0.1325,0.2595,0.26,0.285,0.165,-0.11,-0.1355,-0.1345,-0.3225
0.126,0.0325,-0.0935,-0.0795,0.1095,-0.03,0.132,0.261,0.26,0.29,0.1725,-0.106,-0.1265,-0.13,-0.3185
0.1215,0.0285,-0.093,-0.0755,0.107,-0.0315,0.1295,0.2605,0.259,0.292,0.1775,-0.1065,-0.121,-0.135,-0.3235
0.113,0.018,-0.095,-0.0655,0.1035,-0.038,0.128,0.261,0.258,0.2915,0.177,-0.1065,-0.118,-0.1315,-0.3245
0.109,0.0155,-0.0935,-0.062,0.101,-0.0385,0.1225,0.264,0.258,0.289,0.1785,-0.1055,-0.1135,-0.132,-0.3195
0.1155,0.026,-0.089,-0.0705,0.102,-0.0315,0.121,0.2685,0.26,0.2915,0.184,-0.1005,-0.1115,-0.1305,-0.3165
0.1325,0.0445,-0.088,-0.0885,0.11,-0.0215,0.1265,0.275,0.2665,0.302,0.1925,-0.091,-0.109,-0.131,-0.3195
0.1415,0.055,-0.0865,-0.098,0.1135,-0.0155,0.131,0.28,0.274,0.314,0.1955,-0.09,-0.112,-0.1415,-0.336
0.1285,0.0475,-0.081,-0.088,0.1045,-0.0165,0.135,0.283,0.282,0.3185,0.201,-0.095,-0.1155,-0.149,-0.3475
0.114,0.041,-0.073,-0.0775,0.093,-0.0155,0.1335,0.2845,0.2855,0.318,0.2,-0.1005,-0.1175,-0.152,-0.3525
0.1125,0.049,-0.0635,-0.081,0.088,-0.007,0.1365,0.29,0.291,0.3225,0.1955,-0.099,-0.121,-0.132,-0.3625
0.1125,0.053,-0.059,-0.083,0.0855,-0.003,0.1385,0.2945,0.2965,0.3215,0.195,-0.0985,-0.1205,-0.123,-0.3695
0.117,0.065,-0.052,-0.091,0.0845,0.0065,0.143,0.305,0.3105,0.333,0.2025,-0.0965,-0.1215,-0.125,-0.3755
0.1235,0.0795,-0.044,-0.1015,0.084,0.018,0.152,0.3155,0.3235,0.349,0.2145,-0.0875,-0.1205,-0.1105,-0.381
0.1325,0.0875,-0.045,-0.11,0.0885,0.0215,0.1575,0.3285,0.3325,0.36,0.2255,-0.0805,-0.115,-0.107,-0.3835
0.1475,0.1025,-0.0445,-0.125,0.096,0.029,0.1635,0.3445,0.3475,0.3775,0.2405,-0.0745,-0.1095,-0.0975,-0.3885
0.1425,0.1045,-0.038,-0.1235,0.09,0.0335,0.1625,0.3465,0.353,0.3835,0.2435,-0.0725,-0.1065,-0.0925,-0.3905
0.13,0.0895,-0.0405,-0.11,0.085,0.0245,0.1575,0.346,0.35,0.3795,0.2375,-0.079,-0.107,-0.089,-0.3905
0.1525,0.0905,-0.0625,-0.1215,0.107,0.014,0.152,0.3415,0.3465,0.375,0.2315,-0.0865,-0.107,-0.076,-0.388
0.177,0.111,-0.066,-0.144,0.1215,0.0225,0.1595,0.3505,0.3545,0.3795,0.237,-0.081,-0.1065,-0.0865,-0.383
0.191,0.1275,-0.0635,-0.1595,0.127,0.032,0.1745,0.367,0.366,0.3915,0.2475,-0.071,-0.103,-0.0915,-0.3885
0.195,0.12,-0.0745,-0.1575,0.1345,0.023,0.1745,0.375,0.3685,0.3985,0.2395,-0.0665,-0.096,-0.0845,-0.3895
0.1745,0.111,-0.064,-0.1425,0.119,0.0235,0.1795,0.392,0.3785,0.4065,0.2395,-0.06,-0.09,-0.095,-0.3945
0.1755,0.1215,-0.054,-0.1485,0.1145,0.034,0.1895,0.404,0.3895,0.415,0.252,-0.052,-0.0885,-0.1,-0.4025
0.187,0.131,-0.056,-0.159,0.121,0.038,0.191,0.408,0.392,0.4205,0.2625,-0.0445,-0.0825,-0.0895,-0.403
0.1785,0.1245,-0.0535,-0.1515,0.116,0.036,0.1875,0.411,0.396,0.424,0.271,-0.0395,-0.0705,-0.0875,-0.4075
0.173,0.1245,-0.0485,-0.149,0.1105,0.0385,0.1905,0.4225,0.405,0.4325,0.285,-0.0325,-0.0665,-0.0995,-0.4115
0.1705,0.127,-0.0435,-0.149,0.107,0.042,0.196,0.4305,0.409,0.4385,0.2935,-0.031,-0.0645,-0.109,-0.4145
0.1725,0.122,-0.0505,-0.1475,0.111,0.036,0.1955,0.434,0.41,0.44,0.2925,-0.0325,-0.0625,-0.1035,-0.414
0.1745,0.13,-0.0445,-0.152,0.109,0.043,0.1955,0.4425,0.418,0.4485,0.3,-0.028,-0.059,-0.102,-0.417
0.1585,0.1335,-0.025,-0.146,0.0915,0.0545,0.1955,0.4445,0.425,0.453,0.304,-0.029,-0.059,-0.0875,-0.411
0.161,0.1355,-0.026,-0.1485,0.093,0.055,0.1905,0.445,0.4245,0.454,0.3045,-0.032,-0.0575,-0.076,-0.419
0.182,0.142,-0.04,-0.162,0.111,0.051,0.1775,0.439,0.4205,0.453,0.302,-0.036,-0.0485,-0.08,-0.436
0.2065,0.1615,-0.045,-0.184,0.1255,0.0585,0.175,0.4405,0.4265,0.459,0.307,-0.032,-0.0455,-0.0665,-0.4355
0.2195,0.1835,-0.036,-0.2015,0.1275,0.074,0.1745,0.451,0.438,0.475,0.319,-0.0205,-0.041,-0.0655,-0.432
0.209,0.1785,-0.0305,-0.1935,0.1195,0.074,0.1665,0.4535,0.4465,0.48,0.3225,-0.017,-0.035,-0.0755,-0.43
0.185,0.16,-0.025,-0.1725,0.105,0.0675,0.1595,0.455,0.4485,0.4785,0.3195,-0.0195,-0.0315,-0.066,-0.434
0.1645,0.1435,-0.021,-0.154,0.0925,0.0615,0.1525,0.4555,0.449,0.4795,0.318,-0.0205,-0.026,-0.046,-0.435
0.1615,0.1315,-0.03,-0.1465,0.0955,0.051,0.1425,0.455,0.451,0.4785,0.313,-0.0255,-0.021,-0.037,-0.43
0.1805,0.149,-0.0315,-0.1645,0.1055,0.059,0.14,0.465,0.4625,0.4905,0.317,-0.0195,-0.0135,-0.031,-0.429
0.2255,0.1915,-0.034,-0.208,0.1295,0.079,0.1515,0.486,0.4865,0.512,0.335,-0.0015,-0.0075,-0.0155,-0.433
0.2495,0.2135,-0.036,-0.2315,0.1425,0.089,0.1615,0.5035,0.5025,0.5265,0.3505,0.0085,-0.0055,-0.018,-0.434
0.2685,0.234,-0.035,-0.2515,0.1515,0.0995,0.1685,0.5165,0.5145,0.5405,0.3675,0.019,0.0,-0.0275,-0.431
0.2915,0.2505,-0.0415,-0.271,0.166,0.1045,0.177,0.531,0.5275,0.5555,0.3835,0.029,0.0055,-0.0195,-0.431
0.305,0.2675,-0.0375,-0.286,0.171,0.115,0.1875,0.5455,0.54,0.5685,0.394,0.039,0.007,-0.016,-0.439
0.3265,0.29,-0.0365,-0.3085,0.1815,0.127,0.197,0.558,0.552,0.58,0.4045,0.048,0.007,-0.022,-0.45
0.319,0.2845,-0.0345,-0.302,0.1765,0.1255,0.2005,0.5655,0.5595,0.5885,0.4115,0.049,0.0045,-0.013,-0.4645
0.278,0.257,-0.021,-0.2675,0.1495,0.118,0.197,0.5625,0.558,0.585,0.4055,0.04,0.001,-0.007,-0.4775
0.231,0.2205,-0.011,-0.2255,0.1205,0.105,0.186,0.5565,0.552,0.5825,0.3965,0.0295,0.0005,-0.0185,-0.485
0.196,0.198,0.0025,-0.197,0.0965,0.1005,0.1815,0.554,0.551,0.584,0.392,0.0255,-0.002,-0.0175,-0.496
0.218,0.2265,0.0085,-0.2225,0.1045,0.118,0.1895,0.563,0.5575,0.5895,0.3975,0.032,-0.0015,-0.0185,-0.5005
0.228,0.2305,0.0025,-0.2295,0.1125,0.117,0.186,0.567,0.556,0.59,0.396,0.0295,0.0035,-0.0155,-0.495
0.2025,0.2015,-0.001,-0.202,0.1015,0.1005,0.1725,0.563,0.552,0.5825,0.3885,0.021,0.0085,0.001,-0.489
0.2105,0.2065,-0.004,-0.2085,0.107,0.1015,0.166,0.5685,0.558,0.589,0.395,0.0255,0.015,0.0055,-0.488
0.212,0.196,-0.0155,-0.204,0.1135,0.0905,0.16,0.569,0.5605,0.592,0.3905,0.02,0.0165,-0.0045,-0.4995
0.2095,0.179,-0.0305,-0.194,0.1195,0.0745,0.151,0.565,0.561,0.5875,0.3835,0.0145,0.016,-0.0255,-0.498
0.2125,0.184,-0.029,-0.1985,0.1205,0.0775,0.1475,0.565,0.562,0.5885,0.386,0.0135,0.016,-0.0295,-0.4895
0.21,0.193,-0.017,-0.2015,0.113,0.0885,0.1515,0.573,0.5685,0.595,0.392,0.0185,0.016,-0.016,-0.4895
0.2015,0.1855,-0.016,-0.1935,0.1085,0.085,0.15,0.5765,0.57,0.599,0.397,0.023,0.0195,-0.0185,-0.479
0.1985,0.172,-0.0265,-0.1855,0.1125,0.073,0.143,0.5705,0.5635,0.593,0.391,0.015,0.0175,-0.034,-0.4705
0.207,0.174,-0.033,-0.191,0.12,0.0705,0.142,0.568,0.5625,0.5965,0.3915,0.0155,0.015,-0.045,-0.4715
0.232,0.1805,-0.052,-0.206,0.1415,0.0645,0.1395,0.567,0.5645,0.6035,0.3975,0.018,0.019,-0.047,-0.466
0.26,0.185,-0.0745,-0.2225,0.167,0.0555,0.1265,0.5635,0.5605,0.6025,0.396,0.0185,0.0215,-0.0535,-0.4595
0.2745,0.193,-0.082,-0.234,0.178,0.056,0.118,0.5585,0.5575,0.6045,0.3995,0.022,0.023,-0.071,-0.4545
0.2645,0.203,-0.0615,-0.234,0.163,0.071,0.115,0.554,0.564,0.6145,0.411,0.034,0.0255,-0.068,-0.4445
0.2355,0.1955,-0.04,-0.2155,0.1375,0.078,0.102,0.5385,0.5595,0.618,0.4135,0.0395,0.024,-0.064,-0.4385
0.2375,0.175,-0.0625,-0.2065,0.15,0.0565,0.083,0.5155,0.544,0.609,0.401,0.0305,0.024,-0.0655,-0.4345
0.2375,0.163,-0.074,-0.2005,0.1555,0.045,0.0685,0.5075,0.537,0.606,0.3955,0.0275,0.029,-0.064,-0.427
0.23,0.156,-0.074,-0.193,0.152,0.041,0.0595,0.5065,0.5335,0.607,0.3945,0.0255,0.029,-0.0755,-0.4235
0.2295,0.1505,-0.079,-0.19,0.154,0.036,0.053,0.5055,0.5315,0.607,0.3965,0.028,0.032,-0.0785,-0.42
0.2345,0.1535,-0.0805,-0.194,0.1575,0.0365,0.05,0.5075,0.5325,0.6135,0.401,0.0305,0.039,-0.0745,-0.415
0.2475,0.1595,-0.088,-0.204,0.1675,0.036,0.0485,0.508,0.535,0.621,0.403,0.0285,0.0435,-0.078,-0.417
0.266,0.178,-0.088,-0.222,0.1765,0.0455,0.0515,0.515,0.5425,0.6305,0.409,0.0325,0.045,-0.0745,-0.4205
0.2915,0.21,-0.0815,-0.251,0.1865,0.0645,0.063,0.527,0.5545,0.6435,0.4175,0.0415,0.0445,-0.061,-0.4175
0.2905,0.221,-0.07,-0.2555,0.18,0.0755,0.071,0.535,0.5635,0.651,0.4245,0.0485,0.048,-0.059,-0.415
0.2635,0.1985,-0.065,-0.231,0.164,0.067,0.0685,0.5335,0.561,0.648,0.4215,0.043,0.0495,-0.0535,-0.416
0.2325,0.166,-0.0665,-0.1995,0.1495,0.0505,0.063,0.526,0.5505,0.6405,0.4115,0.031,0.05,-0.053,-0.409
0.2205,0.151,-0.0695,-0.186,0.1445,0.0415,0.066,0.5275,0.547,0.6415,0.4115,0.0305,0.052,-0.059,-0.399
0.2315,0.155,-0.077,-0.1935,0.154,0.039,0.074,0.5365,0.553,0.651,0.418,0.0335,0.054,-0.057,-0.393
0.249,0.1565,-0.0925,-0.203,0.1705,0.0325,0.0725,0.536,0.5535,0.653,0.4205,0.032,0.058,-0.0545,-0.388
0.2445,0.147,-0.098,-0.1955,0.171,0.0245,0.07,0.538,0.5555,0.6565,0.4265,0.037,0.0615,-0.059,-0.3875
0.233,0.1355,-0.0975,-0.1845,0.165,0.0195,0.0745,0.543,0.5625,0.6655,0.432,0.0425,0.062,-0.0735,-0.3835
0.22,0.122,-0.098,-0.171,0.159,0.012,0.0745,0.5465,0.565,0.6685,0.43,0.0415,0.063,-0.0765,-0.387
0.218,0.1145,-0.1035,-0.166,0.1605,0.0055,0.072,0.5525,0.5725,0.672,0.4325,0.0405,0.0655,-0.064,-0.4005
0.237,0.1335,-0.1035,-0.1855,0.17,0.0155,0.079,0.565,0.589,0.688,0.443,0.045,0.0655,-0.0575,-0.4045
0.2295,0.1385,-0.0915,-0.184,0.1605,0.024,0.083,0.576,0.601,0.7005,0.4525,0.0495,0.0675,-0.06,-0.412
0.2165,0.1335,-0.083,-0.175,0.1495,0.0255,0.087,0.5855,0.61,0.713,0.464,0.057,0.0735,-0.073,-0.4235
0.219,0.138,-0.081,-0.1785,0.1495,0.0285,0.0895,0.592,0.617,0.7235,0.472,0.0625,0.0735,-0.091,-0.4255
0.241,0.1475,-0.0935,-0.194,0.167,0.027,0.087,0.5935,0.6195,0.727,0.4755,0.064,0.076,-0.0945,-0.424
0.276,0.1645,-0.1115,-0.2205,0.1935,0.027,0.0915,0.601,0.6255,0.7385,0.4825,0.072,0.0825,-0.095,-0.4245
0.293,0.173,-0.12,-0.233,0.2065,0.027,0.088,0.6035,0.626,0.7405,0.484,0.0745,0.0875,-0.0845,-0.423
0.291,0.1755,-0.1155,-0.233,0.203,0.03,0.083,0.6025,0.627,0.741,0.486,0.075,0.0945,-0.08,-0.4245
0.2915,0.179,-0.1125,-0.2355,0.202,0.0335,0.083,0.6045,0.633,0.7455,0.489,0.08,0.0995,-0.076,-0.4305
0.2975,0.1845,-0.113,-0.241,0.205,0.036,0.083,0.607,0.6375,0.751,0.4935,0.0845,0.104,-0.067,-0.4295
0.292,0.1835,-0.1085,-0.2375,0.2,0.0375,0.0855,0.6125,0.646,0.7585,0.502,0.089,0.1055,-0.0735,-0.4275
0.2805,0.179,-0.1015,-0.2295,0.1905,0.039,0.087,0.6175,0.656,0.766,0.509,0.09,0.1045,-0.0625,-0.4315
0.2625,0.169,-0.0935,-0.216,0.178,0.038,0.0825,0.616,0.657,0.769,0.5095,0.0875,0.108,-0.0605,-0.433
0.25,0.1635,-0.0865,-0.207,0.168,0.039,0.0755,0.613,0.659,0.7695,0.509,0.086,0.11,-0.0645,-0.435
0.2535,0.1635,-0.09,-0.2085,0.171,0.037,0.0715,0.61,0.661,0.775,0.5095,0.085,0.1115,-0.0515,-0.4355
0.262,0.1565,-0.1055,-0.2095,0.1835,0.026,0.0645,0.6065,0.659,0.7745,0.508,0.0795,0.113,-0.053,-0.435
0.271,0.149,-0.122,-0.21,0.1965,0.014,0.061,0.608,0.6605,0.776,0.507,0.077,0.115,-0.054,-0.438
0.2825,0.15,-0.1325,-0.2165,0.2075,0.009,0.0635,0.6135,0.666,0.784,0.512,0.0815,0.1165,-0.0565,-0.4385
0.2785,0.151,-0.1275,-0.2145,0.203,0.012,0.0665,0.62,0.6725,0.7895,0.518,0.0835,0.115,-0.0545,-0.4405
0.2545,0.133,-0.1215,-0.1935,0.188,0.006,0.064,0.619,0.6745,0.792,0.5175,0.079,0.114,-0.059,-0.4465
0.2325,0.1135,-0.119,-0.173,0.176,-0.0025,0.055,0.615,0.6745,0.794,0.516,0.0755,0.115,-0.077,-0.4565
0.228,0.116,-0.112,-0.172,0.17,0.002,0.0555,0.614,0.6755,0.799,0.518,0.077,0.1155,-0.066,-0.4605
0.245,0.1345,-0.111,-0.1895,0.1775,0.012,0.0645,0.62,0.6835,0.8085,0.5255,0.082,0.114,-0.063,-0.462
0.2435,0.1395,-0.104,-0.1915,0.1735,0.018,0.0695,0.6265,0.6905,0.819,0.535,0.0895,0.1175,-0.0735,-0.462
0.238,0.1445,-0.0935,-0.1915,0.1655,0.0255,0.072,0.6285,0.69,0.8235,0.5395,0.0905,0.1165,-0.079,-0.461
0.2415,0.1495,-0.0925,-0.1955,0.167,0.0285,0.077,0.6315,0.695,0.8325,0.547,0.094,0.115,-0.0805,-0.467
0.241,0.153,-0.088,-0.197,0.1645,0.033,0.0795,0.634,0.701,0.843,0.553,0.097,0.117,-0.0645,-0.47
0.25,0.162,-0.088,-0.206,0.169,0.037,0.0745,0.6315,0.6995,0.8445,0.5485,0.091,0.115,-0.057,-0.4685
0.2695,0.1745,-0.095,-0.222,0.182,0.04,0.073,0.633,0.7015,0.846,0.551,0.0915,0.115,-0.0565,-0.4675
0.2745,0.191,-0.084,-0.2325,0.179,0.0535,0.0785,0.6405,0.7075,0.8475,0.5585,0.0965,0.114,-0.047,-0.4695
0.256,0.1875,-0.0685,-0.222,0.162,0.0595,0.0835,0.644,0.7125,0.852,0.5605,0.0975,0.112,-0.045,-0.4715
0.256,0.196,-0.06,-0.226,0.1575,0.068,0.089,0.6495,0.72,0.8625,0.566,0.1035,0.1125,-0.048,-0.469
0.268,0.2155,-0.0525,-0.242,0.16,0.0815,0.097,0.658,0.729,0.871,0.573,0.112,0.114,-0.043,-0.4695
0.2795,0.2195,-0.0605,-0.2495,0.17,0.0795,0.096,0.659,0.731,0.872,0.574,0.1115,0.113,-0.0435,-0.4695
0.252,0.189,-0.063,-0.22,0.157,0.063,0.0865,0.6505,0.722,0.864,0.5675,0.102,0.1135,-0.0435,-0.471
0.199,0.146,-0.053,-0.172,0.1255,0.0465,0.0755,0.638,0.7105,0.852,0.557,0.0905,0.113,-0.0395,-0.463
0.1885,0.138,-0.05,-0.163,0.119,0.0445,0.0725,0.636,0.711,0.8515,0.559,0.0885,0.1135,-0.038,-0.452
0.196,0.139,-0.0565,-0.1675,0.126,0.0415,0.075,0.636,0.714,0.855,0.555,0.094,0.1155,-0.048,-0.463
0.213,0.1495,-0.0635,-0.1815,0.138,0.0435,0.076,0.6345,0.717,0.857,0.548,0.0995,0.1165,-0.0595,-0.4645
0.2335,0.16,-0.0735,-0.197,0.153,0.0435,0.0735,0.634,0.717,0.8585,0.55,0.1045,0.1175,-0.061,-0.46
0.233,0.15,-0.083,-0.1915,0.1575,0.0335,0.065,0.623,0.705,0.8495,0.548,0.101,0.1205,-0.059,-0.4595
0.2225,0.1435,-0.0795,-0.183,0.1505,0.032,0.062,0.617,0.698,0.8435,0.55,0.0995,0.1245,-0.05,-0.4515
0.215,0.139,-0.076,-0.177,0.1455,0.032,0.0625,0.613,0.698,0.842,0.556,0.1035,0.1285,-0.0445,-0.4595
0.2125,0.132,-0.0805,-0.172,0.146,0.026,0.06,0.61,0.6975,0.8395,0.561,0.107,0.1335,-0.0465,-0.466
0.2195,0.14,-0.0795,-0.18,0.1495,0.0305,0.0635,0.6115,0.6975,0.8365,0.5675,0.1095,0.1335,-0.0535,-0.464
0.2335,0.159,-0.0745,-0.1965,0.1535,0.0425,0.0715,0.613,0.702,0.84,0.5805,0.1195,0.132,-0.0605,-0.471
0.2505,0.173,-0.0775,-0.2115,0.164,0.048,0.075,0.614,0.7025,0.8385,0.59,0.1275,0.134,-0.061,-0.467
0.2715,0.1985,-0.073,-0.235,0.172,0.063,0.076,0.613,0.6985,0.836,0.5965,0.133,0.138,-0.0595,-0.4685
0.2885,0.2215,-0.0675,-0.255,0.1775,0.0775,0.079,0.6105,0.6965,0.8355,0.5975,0.14,0.138,-0.0495,-0.4725
0.288,0.226,-0.0625,-0.257,0.175,0.082,0.0805,0.6045,0.691,0.8255,0.593,0.143,0.1365,-0.0325,-0.4555
0.284,0.224,-0.0595,-0.254,0.1715,0.0825,0.079,0.5975,0.6835,0.82,0.5915,0.144,0.139,-0.0285,-0.449
0.2955,0.233,-0.063,-0.264,0.179,0.0855,0.0825,0.597,0.6845,0.818,0.594,0.1485,0.138,-0.0375,-0.45
0.3035,0.252,-0.0515,-0.2775,0.177,0.1005,0.0895,0.5975,0.6815,0.8125,0.5945,0.1535,0.134,-0.0335,-0.447
0.2945,0.2515,-0.043,-0.273,0.1685,0.1045,0.0905,0.585,0.6655,0.793,0.582,0.1495,0.127,-0.0275,-0.4405
0.2755,0.2345,-0.041,-0.255,0.1575,0.097,0.086,0.569,0.6515,0.7725,0.57,0.144,0.1225,-0.0265,-0.4345
0.2575,0.222,-0.0355,-0.2395,0.146,0.0935,0.086,0.565,0.646,0.767,0.5665,0.143,0.123,-0.0305,-0.436
0.2465,0.207,-0.04,-0.227,0.143,0.084,0.083,0.5535,0.6355,0.7535,0.5565,0.137,0.1185,-0.042,-0.4315
0.249,0.188,-0.0605,-0.2185,0.1545,0.064,0.071,0.532,0.615,0.732,0.54,0.1255,0.114,-0.038,-0.424
0.247,0.173,-0.074,-0.21,0.1605,0.0495,0.064,0.519,0.598,0.7155,0.528,0.1205,0.114,-0.054,-0.427
0.242,0.164,-0.078,-0.203,0.1595,0.0435,0.062,0.5055,0.585,0.6985,0.516,0.1135,0.1085,-0.054,-0.4265
0.233,0.158,-0.0745,-0.1955,0.1535,0.042,0.062,0.4955,0.5745,0.688,0.508,0.108,0.104,-0.0465,-0.424
0.2275,0.1525,-0.0755,-0.19,0.151,0.039,0.059,0.485,0.5605,0.674,0.496,0.102,0.102,-0.0485,-0.4235
0.231,0.1505,-0.081,-0.1905,0.1555,0.035,0.0605,0.474,0.547,0.658,0.4875,0.0965,0.096,-0.038,-0.419
0.223,0.1495,-0.0735,-0.186,0.148,0.038,0.067,0.4705,0.541,0.651,0.49,0.099,0.092,-0.0555,-0.4275
0.208,0.147,-0.061,-0.1775,0.134,0.0435,0.0705,0.464,0.5345,0.646,0.492,0.099,0.0885,-0.073,-0.432
0.1905,0.146,-0.045,-0.1685,0.1175,0.051,0.0745,0.459,0.5295,0.6415,0.4915,0.101,0.085,-0.0755,-0.422
0.1945,0.1485,-0.046,-0.1715,0.12,0.0515,0.0745,0.4485,0.517,0.6265,0.483,0.097,0.08,-0.0675,-0.4085
0.209,0.161,-0.048,-0.185,0.1285,0.057,0.07,0.4325,0.5005,0.608,0.4705,0.089,0.075,-0.0605,-0.4065
0.2145,0.1695,-0.045,-0.192,0.1295,0.0625,0.0685,0.421,0.488,0.595,0.459,0.084,0.0695,-0.0575,-0.414
0.2015,0.1645,-0.037,-0.1835,0.119,0.064,0.0695,0.413,0.4795,0.5835,0.452,0.08,0.064,-0.0465,-0.408
0.1995,0.1595,-0.04,-0.1795,0.1195,0.06,0.068,0.4,0.467,0.565,0.4395,0.072,0.0575,-0.0585,-0.4
0.2165,0.1555,-0.0605,-0.186,0.138,0.048,0.066,0.385,0.4475,0.545,0.422,0.06,0.048,-0.0655,-0.396
0.2185,0.1555,-0.063,-0.187,0.1405,0.0465,0.0655,0.377,0.4335,0.5305,0.41,0.052,0.0405,-0.043,-0.3895
0.2255,0.1555,-0.07,-0.1905,0.1475,0.043,0.0695,0.369,0.4225,0.517,0.401,0.0475,0.034,-0.04,-0.384
0.241,0.164,-0.0765,-0.2025,0.1585,0.044,0.075,0.3635,0.415,0.508,0.397,0.049,0.0295,-0.057,-0.382
0.2345,0.164,-0.071,-0.1995,0.1525,0.047,0.0775,0.357,0.4055,0.498,0.3885,0.046,0.0235,-0.066,-0.3805
0.2305,0.159,-0.072,-0.195,0.151,0.044,0.082,0.3535,0.4015,0.495,0.389,0.049,0.021,-0.063,-0.376
0.222,0.147,-0.075,-0.1845,0.1485,0.0365,0.0855,0.348,0.393,0.4885,0.388,0.0505,0.02,-0.07,-0.368
0.1965,0.1175,-0.079,-0.157,0.1375,0.0195,0.0805,0.3335,0.378,0.473,0.374,0.038,0.014,-0.086,-0.3655
0.1865,0.101,-0.0855,-0.1435,0.1355,0.008,0.074,0.321,0.3665,0.4545,0.36,0.029,0.009,-0.0825,-0.3655
0.1775,0.0945,-0.083,-0.136,0.13,0.006,0.0755,0.3125,0.3585,0.44,0.348,0.0245,0.005,-0.086,-0.367
0.168,0.0885,-0.0795,-0.1285,0.1235,0.005,0.0795,0.3075,0.3535,0.4315,0.338,0.0205,-0.0025,-0.103,-0.368
0.1635,0.0885,-0.075,-0.126,0.119,0.007,0.084,0.301,0.3475,0.4225,0.329,0.019,-0.01,-0.1065,-0.367
0.1735,0.1045,-0.069,-0.139,0.121,0.018,0.0955,0.3015,0.3495,0.422,0.3325,0.024,-0.0135,-0.1075,-0.3685
0.19,0.1175,-0.0725,-0.1535,0.131,0.023,0.101,0.299,0.347,0.4155,0.331,0.0245,-0.017,-0.1085,-0.3705
0.1895,0.1175,-0.072,-0.1535,0.131,0.023,0.1005,0.292,0.3385,0.406,0.3255,0.0195,-0.0185,-0.1045,-0.3635
0.1735,0.1095,-0.064,-0.1415,0.1185,0.023,0.104,0.288,0.3315,0.3995,0.322,0.019,-0.022,-0.1035,-0.3575
0.145,0.0875,-0.0575,-0.1165,0.101,0.0155,0.0995,0.274,0.317,0.3835,0.3065,0.008,-0.027,-0.1025,-0.3575
0.1305,0.0845,-0.046,-0.1075,0.088,0.0195,0.096,0.2645,0.305,0.3715,0.296,-0.003,-0.0345,-0.106,-0.355
0.14,0.099,-0.041,-0.1195,0.09,0.029,0.101,0.2605,0.3005,0.3665,0.2915,-0.0015,-0.041,-0.107,-0.351
0.149,0.1035,-0.046,-0.1265,0.097,0.029,0.106,0.2575,0.296,0.361,0.288,0.001,-0.0425,-0.1055,-0.3405
0.151,0.108,-0.043,-0.1295,0.097,0.033,0.1095,0.2545,0.29,0.357,0.2875,0.003,-0.046,-0.105,-0.339
0.143,0.1075,-0.0355,-0.125,0.089,0.0365,0.1085,0.2475,0.2805,0.35,0.283,0.001,-0.0475,-0.098,-0.332
0.153,0.1055,-0.0475,-0.129,0.1,0.029,0.1045,0.239,0.27,0.3395,0.275,-0.0045,-0.0455,-0.0975,-0.3185
