i,ii,iii,avr,avl,avf,v1,v2,v3,v4,v5,v6,vx,vy,vz
0.192,0.0655,-0.1265,-0.1285,0.159,-0.0305,-0.0035,0.7185,0.821,0.9725,0.604,0.3745,0.236,-0.1545,-0.3995
0.2,0.0725,-0.1275,-0.136,0.164,-0.0275,-0.006,0.7235,0.83,0.9785,0.614,0.384,0.2375,-0.147,-0.3995
0.194,0.0655,-0.128,-0.13,0.161,-0.031,-0.0055,0.723,0.8285,0.9785,0.6205,0.385,0.237,-0.142,-0.4035
0.19,0.06,-0.1295,-0.125,0.1595,-0.0345,-0.01,0.722,0.827,0.9795,0.6275,0.3865,0.241,-0.146,-0.415
0.1805,0.0535,-0.1275,-0.117,0.154,-0.037,-0.01,0.719,0.8315,0.985,0.639,0.39,0.2435,-0.161,-0.4265
0.188,0.056,-0.1315,-0.122,0.1595,-0.0375,-0.009,0.721,0.8365,0.989,0.6475,0.3965,0.246,-0.1645,-0.431
0.217,0.079,-0.138,-0.148,0.1775,-0.0295,-0.0095,0.7305,0.842,0.9915,0.651,0.4025,0.249,-0.1485,-0.422
0.23,0.095,-0.1345,-0.1625,0.1825,-0.0195,-0.009,0.733,0.8445,0.9965,0.6555,0.407,0.2495,-0.1415,-0.422
0.234,0.101,-0.133,-0.1675,0.1835,-0.016,-0.005,0.7345,0.847,0.9985,0.6565,0.4095,0.2495,-0.1615,-0.4305
0.2375,0.111,-0.1265,-0.174,0.182,-0.008,-0.005,0.736,0.848,0.9965,0.656,0.411,0.2485,-0.1565,-0.4295
0.241,0.1165,-0.125,-0.1785,0.183,-0.0045,-0.007,0.732,0.8425,0.9915,0.652,0.411,0.2455,-0.1525,-0.4375
0.2375,0.111,-0.127,-0.174,0.1825,-0.008,-0.0125,0.728,0.8365,0.9845,0.6455,0.4105,0.245,-0.16,-0.4325
0.217,0.094,-0.1235,-0.1555,0.1705,-0.015,-0.025,0.7165,0.8265,0.9745,0.6405,0.407,0.2495,-0.138,-0.4135
0.1995,0.0735,-0.126,-0.1365,0.163,-0.0265,-0.0285,0.711,0.8195,0.969,0.6375,0.407,0.252,-0.132,-0.4105
0.193,0.07,-0.1235,-0.1315,0.158,-0.027,-0.03,0.709,0.817,0.965,0.64,0.4115,0.253,-0.128,-0.4135
0.1945,0.0785,-0.116,-0.1365,0.1555,-0.019,-0.032,0.701,0.81,0.955,0.6365,0.412,0.2545,-0.12,-0.41
0.204,0.0845,-0.12,-0.144,0.162,-0.018,-0.033,0.7,0.8065,0.949,0.637,0.4165,0.257,-0.128,-0.401
0.2165,0.0915,-0.125,-0.154,0.1705,-0.0165,-0.033,0.6945,0.799,0.9425,0.637,0.417,0.258,-0.126,-0.3965
0.216,0.089,-0.1265,-0.1525,0.171,-0.019,-0.0325,0.685,0.7895,0.932,0.634,0.4165,0.259,-0.1275,-0.395
0.2155,0.085,-0.1305,-0.1505,0.173,-0.023,-0.0375,0.679,0.784,0.9275,0.6355,0.4215,0.264,-0.131,-0.394
0.22,0.094,-0.1255,-0.157,0.173,-0.016,-0.038,0.672,0.7745,0.9255,0.638,0.4255,0.266,-0.132,-0.393
0.2315,0.1105,-0.1215,-0.171,0.1765,-0.0055,-0.0315,0.671,0.77,0.92,0.6395,0.4315,0.2645,-0.132,-0.398
0.246,0.123,-0.123,-0.1845,0.1845,0.0,-0.0275,0.669,0.768,0.9175,0.642,0.4365,0.2625,-0.1305,-0.403
0.2465,0.1255,-0.121,-0.186,0.184,0.0025,-0.0255,0.662,0.758,0.909,0.643,0.434,0.258,-0.139,-0.407
0.2495,0.129,-0.1205,-0.1895,0.185,0.004,-0.0245,0.6575,0.751,0.8995,0.6395,0.433,0.254,-0.149,-0.4115
0.2595,0.135,-0.1245,-0.1975,0.192,0.0055,-0.0235,0.6535,0.744,0.894,0.64,0.44,0.2565,-0.156,-0.4175
0.2495,0.1285,-0.121,-0.189,0.1855,0.004,-0.025,0.6425,0.7295,0.88,0.6345,0.44,0.257,-0.1505,-0.4235
0.2145,0.098,-0.1165,-0.1565,0.1655,-0.0095,-0.038,0.6225,0.707,0.8585,0.6205,0.43,0.2565,-0.15,-0.423
0.187,0.064,-0.123,-0.1255,0.155,-0.0295,-0.0505,0.6035,0.684,0.836,0.6025,0.4195,0.2575,-0.157,-0.421
0.1855,0.0565,-0.129,-0.121,0.1575,-0.0365,-0.0505,0.5915,0.6685,0.8215,0.592,0.414,0.254,-0.1535,-0.412
0.1915,0.067,-0.1245,-0.1295,0.158,-0.0285,-0.046,0.5835,0.6575,0.813,0.5905,0.4145,0.2505,-0.144,-0.405
0.188,0.069,-0.119,-0.1285,0.1535,-0.025,-0.0465,0.576,0.6435,0.8025,0.585,0.4135,0.2445,-0.1325,-0.394
0.191,0.0705,-0.1205,-0.131,0.1555,-0.025,-0.044,0.563,0.629,0.789,0.576,0.409,0.2395,-0.1375,-0.3875
0.1885,0.0705,-0.118,-0.1295,0.1535,-0.024,-0.0405,0.5525,0.6185,0.777,0.573,0.408,0.237,-0.1465,-0.392
0.198,0.074,-0.124,-0.136,0.161,-0.025,-0.0415,0.548,0.608,0.768,0.569,0.41,0.2365,-0.1605,-0.3775
0.2155,0.086,-0.1295,-0.151,0.1725,-0.0215,-0.0395,0.541,0.594,0.751,0.5585,0.4065,0.232,-0.161,-0.3705
0.2035,0.079,-0.1245,-0.141,0.164,-0.023,-0.0365,0.5285,0.577,0.733,0.545,0.3985,0.2225,-0.1485,-0.363
0.1915,0.0685,-0.123,-0.13,0.157,-0.027,-0.036,0.517,0.562,0.719,0.5325,0.3925,0.217,-0.148,-0.35
0.2025,0.077,-0.1255,-0.1395,0.1635,-0.024,-0.034,0.512,0.5565,0.7135,0.5285,0.3925,0.215,-0.1355,-0.3525
0.2185,0.0925,-0.126,-0.1555,0.172,-0.0165,-0.0295,0.507,0.5515,0.7055,0.529,0.3965,0.211,-0.142,-0.3465
0.2135,0.0905,-0.123,-0.152,0.168,-0.016,-0.032,0.496,0.5395,0.688,0.525,0.3915,0.2035,-0.1545,-0.343
0.174,0.0595,-0.115,-0.117,0.1445,-0.0275,-0.0365,0.4785,0.5175,0.6695,0.5075,0.378,0.1955,-0.153,-0.34
0.1485,0.0355,-0.1125,-0.092,0.13,-0.0385,-0.0415,0.461,0.498,0.6495,0.4895,0.363,0.1865,-0.1535,-0.343
0.153,0.0375,-0.116,-0.095,0.1345,-0.039,-0.0435,0.4505,0.488,0.64,0.482,0.357,0.182,-0.1545,-0.352
0.157,0.04,-0.117,-0.0985,0.137,-0.0385,-0.0415,0.442,0.478,0.631,0.4735,0.356,0.1775,-0.166,-0.348
0.1495,0.032,-0.117,-0.0905,0.133,-0.042,-0.0395,0.4295,0.463,0.617,0.4625,0.3485,0.168,-0.1735,-0.3575
0.154,0.033,-0.121,-0.0935,0.1375,-0.044,-0.039,0.422,0.4525,0.607,0.4565,0.3445,0.163,-0.176,-0.3665
0.172,0.048,-0.124,-0.11,0.148,-0.038,-0.037,0.4195,0.4485,0.6025,0.457,0.348,0.1615,-0.176,-0.356
0.175,0.0535,-0.1215,-0.1145,0.1485,-0.034,-0.0305,0.413,0.441,0.598,0.454,0.3485,0.1585,-0.172,-0.342
0.1805,0.0615,-0.1185,-0.121,0.1495,-0.0285,-0.0255,0.4115,0.4365,0.592,0.452,0.3505,0.1545,-0.1675,-0.3385
0.1755,0.0585,-0.1165,-0.117,0.146,-0.029,-0.025,0.401,0.426,0.5805,0.4455,0.3475,0.1485,-0.176,-0.343
0.168,0.0485,-0.1195,-0.108,0.1435,-0.0355,-0.0245,0.39,0.414,0.5675,0.4345,0.3435,0.1445,-0.1925,-0.341
0.17,0.046,-0.124,-0.1075,0.147,-0.039,-0.025,0.3805,0.4035,0.552,0.426,0.3395,0.1395,-0.187,-0.3335
0.1555,0.028,-0.1275,-0.092,0.1415,-0.0495,-0.024,0.3755,0.3935,0.539,0.415,0.3335,0.1325,-0.1945,-0.3275
0.1385,0.005,-0.1335,-0.0715,0.136,-0.0645,-0.0255,0.367,0.3835,0.525,0.4035,0.325,0.1265,-0.212,-0.327
0.125,-0.0095,-0.1345,-0.0575,0.1295,-0.072,-0.035,0.345,0.361,0.505,0.3915,0.311,0.124,-0.193,-0.3165
0.12,-0.0095,-0.1295,-0.055,0.1245,-0.0695,-0.0375,0.3345,0.3485,0.4955,0.381,0.3035,0.124,-0.1875,-0.3
0.1165,-0.014,-0.13,-0.0515,0.1235,-0.072,-0.0395,0.328,0.341,0.4835,0.3695,0.298,0.1225,-0.1885,-0.287
0.1195,-0.0075,-0.1275,-0.056,0.1235,-0.0675,-0.0395,0.3245,0.339,0.48,0.369,0.296,0.119,-0.181,-0.276
0.1185,-0.005,-0.1235,-0.0565,0.121,-0.0645,-0.0355,0.322,0.337,0.477,0.3685,0.295,0.113,-0.187,-0.2725
0.1145,-0.016,-0.1305,-0.049,0.1225,-0.0735,-0.037,0.316,0.327,0.4645,0.361,0.2925,0.109,-0.1955,-0.283
0.115,-0.021,-0.1365,-0.047,0.126,-0.079,-0.033,0.315,0.323,0.4565,0.354,0.289,0.1045,-0.2045,-0.295
0.1075,-0.0215,-0.1295,-0.043,0.1185,-0.0755,-0.029,0.314,0.3195,0.4505,0.3495,0.289,0.1005,-0.2075,-0.2975
0.1225,-0.0065,-0.129,-0.058,0.1255,-0.0675,-0.0265,0.307,0.3175,0.4485,0.349,0.2915,0.099,-0.21,-0.3005
0.12,-0.014,-0.134,-0.053,0.127,-0.074,-0.0275,0.297,0.3105,0.4405,0.343,0.286,0.095,-0.207,-0.297
0.106,-0.0315,-0.1375,-0.037,0.1215,-0.0845,-0.0295,0.29,0.3005,0.429,0.3335,0.2835,0.0925,-0.209,-0.292
0.107,-0.031,-0.138,-0.038,0.1225,-0.0845,-0.0255,0.286,0.2965,0.424,0.3295,0.282,0.088,-0.217,-0.285
0.105,-0.027,-0.132,-0.0385,0.1185,-0.0795,-0.021,0.284,0.293,0.419,0.327,0.2785,0.08,-0.2215,-0.295
0.1045,-0.0275,-0.1325,-0.0385,0.1185,-0.08,-0.0195,0.28,0.287,0.4125,0.321,0.274,0.0755,-0.222,-0.3025
0.098,-0.0305,-0.1285,-0.0335,0.1135,-0.0795,-0.021,0.2725,0.284,0.4095,0.3165,0.267,0.0725,-0.2205,-0.2935
0.1015,-0.0185,-0.12,-0.041,0.1105,-0.0695,-0.0175,0.2675,0.282,0.4055,0.3125,0.2645,0.066,-0.2195,-0.299
0.103,-0.014,-0.117,-0.0445,0.11,-0.0655,-0.018,0.2625,0.278,0.399,0.3065,0.262,0.0655,-0.2175,-0.297
0.0945,-0.018,-0.1125,-0.0385,0.1035,-0.0655,-0.017,0.262,0.2755,0.3945,0.3045,0.26,0.065,-0.214,-0.2815
0.0825,-0.0295,-0.112,-0.0265,0.0975,-0.071,-0.015,0.2585,0.268,0.386,0.298,0.255,0.0575,-0.211,-0.2785
0.078,-0.0495,-0.1275,-0.014,0.1025,-0.0885,-0.021,0.248,0.2575,0.3735,0.286,0.247,0.053,-0.228,-0.282
0.0975,-0.044,-0.1415,-0.0265,0.1195,-0.093,-0.0235,0.243,0.25,0.366,0.279,0.2445,0.051,-0.2305,-0.274
0.1055,-0.0345,-0.14,-0.0355,0.1225,-0.087,-0.021,0.2445,0.248,0.366,0.2795,0.2465,0.0485,-0.22,-0.2735
0.097,-0.038,-0.135,-0.0295,0.116,-0.0865,-0.0205,0.244,0.2465,0.3645,0.279,0.247,0.0475,-0.2185,-0.2705
0.0875,-0.0485,-0.1365,-0.0195,0.112,-0.0925,-0.0245,0.233,0.2375,0.3545,0.271,0.2415,0.0455,-0.2255,-0.2655
0.0765,-0.0575,-0.134,-0.0095,0.105,-0.096,-0.0225,0.234,0.2355,0.351,0.268,0.241,0.042,-0.232,-0.2605
0.073,-0.0555,-0.1285,-0.0085,0.1005,-0.092,-0.015,0.237,0.238,0.3535,0.272,0.247,0.0405,-0.2265,-0.2575
0.0785,-0.056,-0.1345,-0.011,0.1065,-0.0955,-0.0135,0.237,0.236,0.352,0.27,0.247,0.0405,-0.2305,-0.2595
0.082,-0.058,-0.14,-0.012,0.111,-0.099,-0.013,0.2435,0.234,0.351,0.268,0.2445,0.0405,-0.2435,-0.2665
0.0835,-0.055,-0.139,-0.014,0.111,-0.097,-0.014,0.239,0.2295,0.349,0.2645,0.24,0.0395,-0.2545,-0.272
0.0915,-0.05,-0.1415,-0.021,0.1165,-0.0955,-0.013,0.2335,0.2255,0.346,0.264,0.238,0.038,-0.2545,-0.2695
0.098,-0.045,-0.1435,-0.0265,0.1205,-0.094,-0.012,0.2345,0.222,0.346,0.269,0.2455,0.0435,-0.251,-0.276
0.109,-0.044,-0.153,-0.0325,0.131,-0.0985,-0.018,0.233,0.2185,0.345,0.2685,0.2455,0.048,-0.2545,-0.2805
0.11,-0.055,-0.165,-0.0275,0.1375,-0.11,-0.0235,0.2195,0.206,0.3335,0.258,0.231,0.043,-0.2605,-0.2745
0.105,-0.0605,-0.1655,-0.0225,0.135,-0.113,-0.0265,0.21,0.196,0.323,0.2465,0.2215,0.0405,-0.255,-0.2735
0.107,-0.0495,-0.156,-0.029,0.1315,-0.1025,-0.023,0.2105,0.1995,0.3245,0.247,0.223,0.042,-0.2455,-0.2815
0.1045,-0.0445,-0.149,-0.03,0.1265,-0.097,-0.019,0.2115,0.2025,0.3255,0.249,0.2255,0.042,-0.246,-0.276
0.0905,-0.06,-0.1505,-0.0155,0.1205,-0.105,-0.0225,0.2065,0.1965,0.319,0.2385,0.2165,0.036,-0.245,-0.269
0.0725,-0.075,-0.1475,0.001,0.11,-0.111,-0.0265,0.197,0.1895,0.3105,0.23,0.208,0.029,-0.2405,-0.271
0.0705,-0.072,-0.1425,0.001,0.1065,-0.1075,-0.0225,0.199,0.1885,0.3075,0.2305,0.2125,0.027,-0.236,-0.267
0.0625,-0.078,-0.14,0.0075,0.1015,-0.109,-0.022,0.1995,0.1895,0.3085,0.2305,0.2155,0.029,-0.249,-0.2715
0.0735,-0.071,-0.1445,-0.001,0.109,-0.108,-0.019,0.209,0.1975,0.315,0.2365,0.223,0.034,-0.2545,-0.277
0.096,-0.0515,-0.1475,-0.0225,0.122,-0.0995,-0.01,0.217,0.1985,0.32,0.2425,0.2285,0.033,-0.257,-0.2785
0.1055,-0.0445,-0.15,-0.0305,0.1275,-0.0975,-0.008,0.2155,0.1925,0.318,0.246,0.2325,0.033,-0.2675,-0.2795
0.1135,-0.0385,-0.152,-0.0375,0.133,-0.0955,-0.006,0.2185,0.192,0.324,0.253,0.2395,0.0375,-0.2545,-0.273
0.1085,-0.041,-0.1495,-0.0335,0.129,-0.0955,-0.008,0.2175,0.195,0.3295,0.257,0.2435,0.04,-0.253,-0.2665
0.113,-0.043,-0.156,-0.035,0.1345,-0.0995,-0.0045,0.2215,0.197,0.3275,0.2575,0.247,0.0405,-0.26,-0.264
0.118,-0.0415,-0.1595,-0.0385,0.139,-0.1005,0.002,0.225,0.195,0.324,0.255,0.245,0.0365,-0.2575,-0.262
0.123,-0.042,-0.165,-0.0405,0.144,-0.1035,0.004,0.2245,0.196,0.32,0.251,0.2435,0.033,-0.2575,-0.2575
0.1325,-0.036,-0.1685,-0.048,0.1505,-0.1025,0.0065,0.2235,0.1945,0.3145,0.2465,0.238,0.0295,-0.2555,-0.26
0.1165,-0.0365,-0.1525,-0.04,0.1345,-0.0945,0.01,0.2265,0.195,0.3155,0.2505,0.237,0.0275,-0.2565,-0.262
0.083,-0.0595,-0.142,-0.012,0.1125,-0.1005,0.0085,0.222,0.1895,0.3105,0.2455,0.2305,0.026,-0.253,-0.262
0.0615,-0.0865,-0.148,0.0125,0.105,-0.1175,-0.006,0.205,0.172,0.2975,0.2315,0.2145,0.024,-0.2495,-0.263
0.066,-0.089,-0.155,0.0115,0.1105,-0.122,-0.0095,0.204,0.1705,0.2975,0.23,0.214,0.025,-0.269,-0.266
0.0825,-0.076,-0.1585,-0.0035,0.1205,-0.117,-0.0035,0.2065,0.175,0.303,0.233,0.219,0.026,-0.277,-0.2725
0.0995,-0.0645,-0.164,-0.0175,0.1315,-0.114,-0.0035,0.2035,0.172,0.3035,0.2315,0.2205,0.027,-0.2625,-0.2675
0.098,-0.058,-0.1565,-0.02,0.1275,-0.1075,-0.002,0.1995,0.1665,0.2975,0.228,0.2205,0.027,-0.2515,-0.2575
0.0905,-0.0555,-0.1465,-0.0175,0.1185,-0.101,-0.0035,0.198,0.166,0.2975,0.229,0.2235,0.0305,-0.2505,-0.2545
0.0975,-0.053,-0.1505,-0.022,0.124,-0.102,-0.0065,0.201,0.171,0.301,0.232,0.229,0.0375,-0.2445,-0.256
0.0885,-0.063,-0.152,-0.013,0.1205,-0.1075,-0.009,0.2015,0.168,0.297,0.231,0.2295,0.039,-0.2575,-0.261
0.0865,-0.071,-0.1575,-0.008,0.122,-0.114,-0.008,0.201,0.163,0.293,0.228,0.2285,0.0385,-0.271,-0.2595
0.0895,-0.074,-0.1635,-0.008,0.1265,-0.119,-0.0105,0.194,0.1585,0.288,0.2235,0.225,0.0425,-0.253,-0.2445
0.079,-0.0825,-0.162,0.002,0.1205,-0.1225,-0.017,0.1905,0.157,0.2855,0.221,0.221,0.046,-0.2515,-0.2265
0.079,-0.081,-0.16,0.001,0.1195,-0.1205,-0.0155,0.196,0.1625,0.2895,0.2235,0.2205,0.045,-0.247,-0.219
0.083,-0.0765,-0.1595,-0.003,0.121,-0.118,-0.0115,0.1965,0.1635,0.2885,0.221,0.219,0.0375,-0.2465,-0.2215
0.0865,-0.073,-0.1595,-0.007,0.123,-0.1165,-0.008,0.1985,0.1595,0.282,0.2155,0.218,0.03,-0.249,-0.2145
0.075,-0.085,-0.1595,0.005,0.117,-0.1225,-0.005,0.1975,0.1565,0.274,0.211,0.215,0.0245,-0.2435,-0.2025
0.0615,-0.096,-0.157,0.0175,0.1095,-0.1265,-0.0045,0.192,0.1535,0.2705,0.205,0.209,0.019,-0.227,-0.1955
0.066,-0.087,-0.153,0.0105,0.1095,-0.12,-0.01,0.191,0.1545,0.275,0.2085,0.2065,0.0145,-0.236,-0.209
0.0755,-0.079,-0.1545,0.002,0.115,-0.117,-0.0095,0.1905,0.1565,0.2775,0.21,0.206,0.015,-0.268,-0.229
0.0775,-0.0745,-0.152,-0.0015,0.1145,-0.113,-0.0035,0.193,0.1585,0.281,0.212,0.2075,0.014,-0.2555,-0.231
0.0705,-0.0705,-0.141,0.0,0.106,-0.1055,0.002,0.1965,0.166,0.291,0.2235,0.214,0.015,-0.2395,-0.232
0.071,-0.0635,-0.134,-0.0035,0.1025,-0.0985,0.0055,0.2,0.171,0.2955,0.2275,0.22,0.02,-0.2425,-0.2355
0.077,-0.065,-0.142,-0.006,0.1095,-0.1035,0.0005,0.201,0.17,0.294,0.224,0.222,0.0215,-0.2525,-0.2365
0.087,-0.065,-0.152,-0.011,0.1195,-0.1085,-0.0015,0.2045,0.171,0.2945,0.2235,0.2245,0.0265,-0.248,-0.232
0.0905,-0.0625,-0.1525,-0.014,0.1215,-0.1075,-0.003,0.2055,0.1705,0.294,0.2205,0.223,0.0305,-0.2405,-0.2285
0.0925,-0.068,-0.16,-0.0125,0.1265,-0.114,-0.007,0.201,0.165,0.2895,0.215,0.2195,0.0295,-0.2465,-0.2385
0.1,-0.0635,-0.1635,-0.018,0.132,-0.114,-0.005,0.2025,0.167,0.2935,0.217,0.2235,0.029,-0.257,-0.24
0.096,-0.0605,-0.1565,-0.0175,0.1265,-0.1085,-0.0015,0.2045,0.1675,0.295,0.2235,0.224,0.0255,-0.257,-0.2275
0.0945,-0.061,-0.1555,-0.017,0.125,-0.108,-0.0025,0.199,0.1625,0.292,0.2245,0.2205,0.0195,-0.2545,-0.2275
0.105,-0.0515,-0.1565,-0.027,0.1305,-0.104,-0.003,0.1985,0.1645,0.296,0.2255,0.222,0.021,-0.251,-0.22
0.1015,-0.054,-0.1555,-0.0235,0.1285,-0.105,-0.005,0.1965,0.1625,0.293,0.2245,0.2215,0.0215,-0.2375,-0.212
0.0915,-0.0585,-0.15,-0.0165,0.1205,-0.104,-0.0065,0.197,0.1585,0.287,0.222,0.2175,0.0165,-0.231,-0.21
0.0985,-0.0525,-0.151,-0.0225,0.125,-0.102,-0.004,0.2015,0.162,0.286,0.222,0.2125,0.015,-0.2345,-0.2085
0.0995,-0.063,-0.162,-0.0185,0.131,-0.1125,-0.007,0.197,0.1615,0.285,0.22,0.208,0.0145,-0.2405,-0.2115
0.092,-0.077,-0.169,-0.0075,0.1305,-0.123,-0.007,0.196,0.162,0.285,0.2195,0.208,0.0165,-0.24,-0.206
0.095,-0.0765,-0.1715,-0.0095,0.1335,-0.124,-0.003,0.1995,0.168,0.288,0.222,0.2125,0.0195,-0.2385,-0.198
0.0945,-0.0765,-0.1715,-0.009,0.133,-0.124,-0.003,0.2005,0.169,0.2895,0.2245,0.2155,0.021,-0.243,-0.2005
0.0955,-0.0755,-0.1705,-0.01,0.133,-0.123,-0.0005,0.2035,0.1705,0.293,0.227,0.2185,0.0225,-0.244,-0.2015
0.1065,-0.062,-0.1685,-0.022,0.1375,-0.115,0.0035,0.207,0.175,0.297,0.2315,0.2255,0.025,-0.2375,-0.2045
0.094,-0.074,-0.168,-0.01,0.131,-0.121,0.001,0.2045,0.1705,0.292,0.222,0.2215,0.023,-0.2455,-0.2155
0.0785,-0.0915,-0.17,0.0065,0.1245,-0.131,-0.0015,0.204,0.1685,0.291,0.206,0.218,0.0225,-0.253,-0.2185
0.0845,-0.0875,-0.1725,0.0015,0.1285,-0.13,0.0,0.203,0.1675,0.2905,0.2035,0.2195,0.0235,-0.2545,-0.222
0.085,-0.0895,-0.1745,0.0025,0.1295,-0.132,0.0005,0.201,0.1635,0.286,0.206,0.2165,0.0205,-0.2635,-0.224
0.09,-0.0855,-0.176,-0.002,0.133,-0.131,0.002,0.2015,0.1665,0.2895,0.212,0.2145,0.0205,-0.272,-0.225
0.1,-0.076,-0.176,-0.012,0.138,-0.126,0.0025,0.2015,0.1675,0.2895,0.218,0.2115,0.0195,-0.268,-0.2225
0.107,-0.0635,-0.171,-0.0215,0.139,-0.117,0.004,0.202,0.1645,0.29,0.2315,0.216,0.0195,-0.254,-0.2255
0.114,-0.0505,-0.165,-0.0315,0.1395,-0.108,0.0055,0.205,0.166,0.2955,0.2385,0.2205,0.0185,-0.2515,-0.2275
0.117,-0.0415,-0.1585,-0.038,0.138,-0.1,0.007,0.207,0.1715,0.2975,0.239,0.2235,0.0165,-0.2495,-0.231
0.1185,-0.04,-0.1585,-0.039,0.1385,-0.0995,0.0085,0.206,0.1715,0.2975,0.2415,0.2255,0.0155,-0.2575,-0.2355
0.0995,-0.0555,-0.155,-0.022,0.1275,-0.1055,0.0045,0.2,0.165,0.29,0.234,0.2185,0.016,-0.2555,-0.217
0.0935,-0.064,-0.1575,-0.015,0.1255,-0.1105,0.006,0.203,0.166,0.29,0.232,0.2185,0.018,-0.2425,-0.216
0.108,-0.06,-0.168,-0.024,0.1375,-0.114,0.0055,0.203,0.1665,0.2875,0.2315,0.221,0.0165,-0.2415,-0.2195
0.107,-0.059,-0.166,-0.024,0.1365,-0.1125,-0.0015,0.1955,0.1635,0.283,0.2265,0.222,0.0195,-0.249,-0.2095
0.1075,-0.059,-0.1665,-0.0245,0.1365,-0.1125,0.0005,0.202,0.1675,0.2885,0.23,0.2265,0.024,-0.2495,-0.206
0.107,-0.06,-0.1665,-0.0235,0.1365,-0.113,0.0075,0.2045,0.171,0.2905,0.2315,0.229,0.0245,-0.253,-0.206
0.107,-0.058,-0.165,-0.0245,0.136,-0.112,0.0115,0.208,0.173,0.292,0.231,0.2305,0.0215,-0.26,-0.212
0.109,-0.0565,-0.1655,-0.026,0.1375,-0.111,0.0155,0.213,0.18,0.295,0.2315,0.2295,0.0195,-0.2615,-0.2235
0.111,-0.0605,-0.1715,-0.025,0.141,-0.116,0.007,0.2025,0.1735,0.2865,0.2235,0.224,0.021,-0.2615,-0.225
0.104,-0.0675,-0.1715,-0.0185,0.138,-0.1195,0.0025,0.199,0.1665,0.2725,0.215,0.219,0.017,-0.256,-0.2135
0.0895,-0.08,-0.1695,-0.0045,0.1295,-0.125,0.004,0.1995,0.167,0.273,0.2125,0.2175,0.0115,-0.263,-0.21
0.103,-0.08,-0.183,-0.011,0.143,-0.1315,0.0,0.1975,0.168,0.2785,0.215,0.216,0.013,-0.259,-0.2155
0.1065,-0.0715,-0.1775,-0.0175,0.142,-0.1245,0.0005,0.2005,0.17,0.2835,0.2235,0.2205,0.0165,-0.257,-0.2195
0.0985,-0.0675,-0.1655,-0.0155,0.132,-0.1165,0.0045,0.2045,0.173,0.286,0.226,0.223,0.0155,-0.268,-0.226
0.1015,-0.0665,-0.1685,-0.0175,0.135,-0.1175,0.0075,0.211,0.176,0.285,0.223,0.2215,0.0145,-0.268,-0.223
0.103,-0.065,-0.168,-0.019,0.1355,-0.1165,0.007,0.206,0.173,0.284,0.217,0.2165,0.012,-0.2605,-0.224
0.107,-0.0605,-0.1675,-0.023,0.1375,-0.114,0.0025,0.2005,0.17,0.282,0.214,0.2125,0.013,-0.2535,-0.2255
0.111,-0.0605,-0.1715,-0.0255,0.1415,-0.116,-0.002,0.198,0.1665,0.281,0.2135,0.214,0.018,-0.2495,-0.215
0.11,-0.055,-0.165,-0.0275,0.1375,-0.11,-0.002,0.195,0.1665,0.2815,0.2155,0.2145,0.02,-0.244,-0.2115
0.1015,-0.061,-0.162,-0.0205,0.132,-0.1115,0.0,0.196,0.168,0.2825,0.2195,0.221,0.0235,-0.249,-0.207
0.1035,-0.063,-0.1665,-0.0205,0.135,-0.115,0.0005,0.197,0.1675,0.282,0.221,0.2225,0.0255,-0.239,-0.2035
0.111,-0.059,-0.17,-0.026,0.1405,-0.1145,0.001,0.193,0.166,0.2795,0.22,0.2215,0.023,-0.234,-0.1975
0.114,-0.062,-0.176,-0.026,0.145,-0.119,0.0015,0.19,0.163,0.277,0.219,0.2255,0.0245,-0.248,-0.191
0.119,-0.0505,-0.1695,-0.0345,0.1445,-0.11,0.0075,0.193,0.165,0.276,0.2215,0.2295,0.0245,-0.246,-0.192
0.126,-0.0415,-0.1675,-0.0425,0.1465,-0.1045,0.01,0.192,0.1635,0.276,0.2225,0.232,0.021,-0.2465,-0.1855
0.1195,-0.046,-0.166,-0.037,0.143,-0.106,0.0105,0.1925,0.165,0.2765,0.2205,0.229,0.0185,-0.2455,-0.1805
0.109,-0.0525,-0.162,-0.028,0.1355,-0.1075,0.014,0.1915,0.164,0.276,0.221,0.227,0.0185,-0.239,-0.176
0.1145,-0.051,-0.1655,-0.0315,0.14,-0.1085,0.012,0.1925,0.164,0.277,0.223,0.226,0.018,-0.2275,-0.1785
0.108,-0.0535,-0.162,-0.027,0.135,-0.108,0.0105,0.1925,0.1665,0.28,0.224,0.221,0.017,-0.2415,-0.1965
0.095,-0.0655,-0.1605,-0.015,0.128,-0.113,0.0055,0.1895,0.1615,0.278,0.222,0.2135,0.0205,-0.2625,-0.199
0.088,-0.075,-0.163,-0.007,0.1255,-0.119,0.003,0.1905,0.1555,0.274,0.217,0.2075,0.0185,-0.2585,-0.2005
0.0835,-0.083,-0.166,0.0,0.1245,-0.1245,0.0055,0.19,0.154,0.274,0.2165,0.204,0.0165,-0.262,-0.202
0.0785,-0.091,-0.17,0.0065,0.1245,-0.1305,0.0025,0.1925,0.1545,0.2735,0.2175,0.2035,0.0165,-0.2705,-0.1995
0.066,-0.106,-0.172,0.02,0.119,-0.139,-0.001,0.1915,0.147,0.268,0.208,0.198,0.0105,-0.2665,-0.2115
0.065,-0.11,-0.1745,0.0225,0.1195,-0.1425,-0.008,0.1835,0.1415,0.2655,0.203,0.1945,0.01,-0.2655,-0.2165
0.0875,-0.0905,-0.178,0.0015,0.1325,-0.134,-0.0115,0.183,0.1435,0.2715,0.2065,0.201,0.015,-0.2755,-0.2175
0.1075,-0.075,-0.182,-0.016,0.1445,-0.1285,-0.014,0.182,0.139,0.2695,0.2055,0.206,0.0215,-0.263,-0.2085
0.106,-0.0685,-0.174,-0.019,0.14,-0.121,-0.015,0.1785,0.138,0.267,0.204,0.208,0.024,-0.2535,-0.206
0.107,-0.0575,-0.1645,-0.0245,0.136,-0.111,-0.0125,0.183,0.1435,0.271,0.207,0.2085,0.023,-0.255,-0.211
0.119,-0.048,-0.167,-0.0355,0.143,-0.1075,-0.0085,0.187,0.147,0.274,0.2105,0.2115,0.0235,-0.2505,-0.2005
0.1245,-0.0445,-0.1685,-0.04,0.1465,-0.1065,-0.0025,0.1885,0.149,0.274,0.214,0.217,0.0255,-0.248,-0.1965
0.139,-0.0315,-0.17,-0.0535,0.1545,-0.1005,-0.0015,0.194,0.154,0.2765,0.215,0.2235,0.028,-0.2425,-0.1885
0.1505,-0.0215,-0.172,-0.0645,0.161,-0.0965,0.0045,0.197,0.159,0.2815,0.219,0.226,0.022,-0.252,-0.1895
0.1335,-0.029,-0.1625,-0.052,0.148,-0.096,0.006,0.1925,0.153,0.279,0.2205,0.2225,0.017,-0.2545,-0.1935
0.1265,-0.037,-0.1635,-0.0445,0.145,-0.1005,0.0005,0.188,0.1465,0.2765,0.2185,0.222,0.0175,-0.242,-0.1885
0.1265,-0.0435,-0.17,-0.0415,0.148,-0.107,0.0035,0.188,0.149,0.279,0.221,0.2225,0.016,-0.239,-0.1825
0.1115,-0.059,-0.1705,-0.0265,0.141,-0.1145,0.001,0.1845,0.1455,0.277,0.2185,0.221,0.018,-0.239,-0.171
0.1075,-0.073,-0.1805,-0.017,0.144,-0.1265,-0.002,0.1865,0.1445,0.2725,0.2145,0.2215,0.022,-0.247,-0.177
0.1005,-0.082,-0.1825,-0.0095,0.1415,-0.1325,-0.001,0.189,0.1485,0.273,0.217,0.2215,0.0225,-0.258,-0.1815
0.095,-0.0905,-0.1855,-0.002,0.1405,-0.138,-0.0065,0.182,0.142,0.267,0.2125,0.22,0.024,-0.255,-0.177
0.097,-0.0875,-0.185,-0.0045,0.141,-0.136,-0.0035,0.1845,0.139,0.2635,0.212,0.222,0.021,-0.251,-0.175
0.0975,-0.0845,-0.1825,-0.0065,0.14,-0.1335,0.003,0.188,0.141,0.2665,0.2165,0.2245,0.0175,-0.2625,-0.179
0.0935,-0.0935,-0.187,0.0,0.1405,-0.14,0.0005,0.1855,0.1405,0.266,0.2165,0.223,0.019,-0.267,-0.19
0.08,-0.1045,-0.185,0.012,0.1325,-0.145,-0.0045,0.181,0.139,0.2665,0.2165,0.218,0.017,-0.266,-0.1955
0.089,-0.0945,-0.1835,0.003,0.136,-0.139,-0.002,0.182,0.1425,0.2715,0.2185,0.2155,0.0175,-0.2625,-0.195
0.1015,-0.079,-0.1805,-0.011,0.141,-0.13,-0.0015,0.182,0.1415,0.2695,0.2165,0.2145,0.015,-0.253,-0.1925
0.1025,-0.0805,-0.183,-0.011,0.143,-0.1315,-0.002,0.1785,0.137,0.262,0.2115,0.211,0.0125,-0.2505,-0.196
0.114,-0.071,-0.185,-0.0215,0.1495,-0.128,0.003,0.182,0.142,0.2625,0.214,0.215,0.014,-0.253,-0.199
0.137,-0.046,-0.183,-0.0455,0.16,-0.1145,0.0075,0.189,0.1505,0.271,0.2215,0.222,0.012,-0.2575,-0.19
0.134,-0.042,-0.176,-0.046,0.155,-0.109,0.0115,0.1915,0.158,0.278,0.223,0.2185,0.005,-0.2515,-0.1925
0.1025,-0.0605,-0.1625,-0.021,0.1325,-0.1115,0.009,0.184,0.154,0.272,0.215,0.2075,-0.0015,-0.248,-0.1975
0.0795,-0.0855,-0.165,0.0025,0.1225,-0.125,-0.0025,0.17,0.14,0.2575,0.2035,0.1955,-0.002,-0.246,-0.188
0.0675,-0.107,-0.174,0.02,0.1205,-0.1405,-0.0095,0.165,0.1365,0.2505,0.197,0.191,-0.001,-0.2465,-0.182
0.067,-0.1095,-0.1765,0.0215,0.122,-0.143,-0.011,0.1655,0.1375,0.2485,0.195,0.192,0.0025,-0.255,-0.1775
0.0675,-0.1135,-0.181,0.023,0.124,-0.1475,-0.014,0.16,0.1315,0.244,0.1875,0.189,-0.0005,-0.25,-0.177
0.07,-0.1145,-0.1845,0.022,0.127,-0.1495,-0.012,0.1625,0.133,0.244,0.186,0.192,-0.0025,-0.259,-0.181
0.0765,-0.103,-0.1795,0.0135,0.128,-0.1415,-0.006,0.168,0.1405,0.251,0.1945,0.2005,-0.001,-0.273,-0.1855
0.081,-0.0965,-0.1775,0.0075,0.1295,-0.137,-0.0045,0.1705,0.146,0.254,0.1975,0.2045,0.0005,-0.2685,-0.184
0.0865,-0.091,-0.1775,0.0025,0.132,-0.1345,-0.0025,0.173,0.15,0.258,0.201,0.209,0.008,-0.265,-0.182
0.0845,-0.0835,-0.1685,-0.0005,0.1265,-0.126,-0.0035,0.1725,0.155,0.262,0.2035,0.2125,0.0115,-0.2665,-0.1875
0.071,-0.095,-0.166,0.012,0.1185,-0.13,-0.01,0.165,0.153,0.2555,0.196,0.207,0.013,-0.2675,-0.1945
0.065,-0.1055,-0.17,0.0205,0.1175,-0.138,-0.008,0.1615,0.149,0.2495,0.1915,0.204,0.0125,-0.261,-0.2
0.0725,-0.0975,-0.17,0.0125,0.121,-0.1335,-0.004,0.164,0.152,0.25,0.195,0.208,0.0105,-0.2595,-0.1945
0.0805,-0.093,-0.1735,0.006,0.127,-0.1335,-0.0035,0.166,0.1545,0.25,0.196,0.209,0.009,-0.2635,-0.18
0.0845,-0.0865,-0.1705,0.001,0.1275,-0.1285,-0.003,0.166,0.156,0.251,0.1975,0.2085,0.0085,-0.255,-0.177
0.078,-0.0815,-0.1595,0.002,0.119,-0.121,-0.0055,0.162,0.1545,0.2515,0.198,0.208,0.008,-0.2465,-0.178
0.0745,-0.088,-0.163,0.007,0.119,-0.1255,-0.008,0.1615,0.1535,0.25,0.194,0.2045,0.011,-0.2465,-0.178
0.07,-0.097,-0.167,0.0135,0.1185,-0.132,-0.0125,0.1595,0.154,0.2495,0.1925,0.2005,0.0155,-0.2495,-0.177
0.0785,-0.101,-0.179,0.0115,0.1285,-0.14,-0.0195,0.152,0.1495,0.245,0.191,0.197,0.0175,-0.257,-0.1805
0.0985,-0.088,-0.1865,-0.0055,0.1425,-0.1375,-0.017,0.154,0.153,0.246,0.1955,0.201,0.015,-0.2555,-0.186
0.0965,-0.083,-0.18,-0.007,0.1385,-0.1315,-0.0115,0.1595,0.157,0.2485,0.197,0.2025,0.0115,-0.2495,-0.1775
0.085,-0.0905,-0.1755,0.003,0.13,-0.133,-0.01,0.158,0.154,0.244,0.1925,0.198,0.0085,-0.2475,-0.17
0.0755,-0.0975,-0.173,0.011,0.1245,-0.1355,-0.008,0.1595,0.156,0.246,0.1955,0.2005,0.007,-0.2555,-0.175
0.07,-0.109,-0.179,0.0195,0.1245,-0.144,-0.012,0.157,0.155,0.247,0.1955,0.1975,0.009,-0.26,-0.1745
0.081,-0.0975,-0.1785,0.0085,0.1295,-0.138,-0.01,0.158,0.158,0.2495,0.198,0.1975,0.009,-0.2575,-0.171
0.0975,-0.0795,-0.1775,-0.009,0.1375,-0.1285,-0.0005,0.1665,0.165,0.252,0.2035,0.2015,0.006,-0.2585,-0.1625
0.099,-0.0835,-0.1825,-0.0075,0.141,-0.133,-0.0015,0.166,0.1635,0.2495,0.201,0.2015,0.006,-0.2545,-0.156
0.0935,-0.0925,-0.186,-0.001,0.14,-0.1395,-0.004,0.1635,0.1625,0.2505,0.199,0.2,0.007,-0.254,-0.16
0.0895,-0.0975,-0.187,0.004,0.138,-0.1425,-0.0045,0.163,0.162,0.25,0.198,0.1975,0.004,-0.253,-0.1565
0.0885,-0.0955,-0.1835,0.0035,0.136,-0.1395,-0.0035,0.164,0.165,0.253,0.2015,0.2015,0.0055,-0.258,-0.1685
0.081,-0.097,-0.1785,0.008,0.13,-0.138,-0.004,0.1635,0.1675,0.2555,0.205,0.2025,0.007,-0.267,-0.1735
0.0725,-0.1045,-0.1765,0.016,0.1245,-0.1405,-0.006,0.159,0.1605,0.2515,0.206,0.2015,0.004,-0.27,-0.1735
0.074,-0.1035,-0.177,0.0145,0.126,-0.1405,-0.0045,0.1575,0.157,0.2505,0.203,0.204,0.0055,-0.264,-0.1765
0.072,-0.1045,-0.1765,0.0165,0.124,-0.1405,-0.0075,0.1565,0.1575,0.2445,0.196,0.2025,0.0045,-0.2645,-0.1725
0.0755,-0.0965,-0.172,0.0105,0.124,-0.1345,-0.008,0.157,0.1545,0.2405,0.197,0.2045,0.005,-0.2615,-0.18
0.088,-0.0805,-0.1685,-0.004,0.128,-0.1245,-0.0055,0.157,0.1545,0.247,0.2015,0.2095,0.0095,-0.2565,-0.1865
0.0975,-0.073,-0.1705,-0.0125,0.134,-0.1215,-0.005,0.1575,0.1545,0.2495,0.204,0.209,0.012,-0.262,-0.185
0.1045,-0.0655,-0.17,-0.0195,0.1375,-0.118,-0.0045,0.1615,0.155,0.2535,0.2065,0.2125,0.016,-0.26,-0.1785
0.104,-0.0675,-0.172,-0.018,0.138,-0.1195,-0.002,0.1615,0.154,0.256,0.209,0.212,0.012,-0.255,-0.1775
0.098,-0.0725,-0.1705,-0.013,0.1345,-0.1215,-0.0015,0.1585,0.151,0.2505,0.2055,0.2055,0.005,-0.2495,-0.168
0.095,-0.0755,-0.1705,-0.01,0.133,-0.123,-0.003,0.154,0.1455,0.244,0.1985,0.2025,0.004,-0.244,-0.161
0.1,-0.0795,-0.18,-0.0105,0.14,-0.13,-0.006,0.1495,0.141,0.2395,0.1905,0.196,0.003,-0.248,-0.1585
0.099,-0.0795,-0.1785,-0.0095,0.1385,-0.1285,-0.0045,0.1535,0.1435,0.2415,0.192,0.199,0.003,-0.255,-0.153
0.091,-0.086,-0.1775,-0.0025,0.1345,-0.132,-0.003,0.1525,0.1415,0.2415,0.1955,0.2005,0.003,-0.264,-0.158
0.071,-0.1055,-0.1765,0.017,0.124,-0.141,-0.009,0.1485,0.136,0.237,0.1915,0.1935,0.0015,-0.262,-0.1645
0.0555,-0.1175,-0.1735,0.031,0.1145,-0.1455,-0.009,0.148,0.131,0.2325,0.1855,0.1925,0.0025,-0.2535,-0.161
0.074,-0.105,-0.179,0.0155,0.1265,-0.142,-0.0075,0.151,0.1315,0.2335,0.1865,0.1965,0.0015,-0.2615,-0.1645
0.0855,-0.0985,-0.184,0.0065,0.1345,-0.141,-0.008,0.156,0.131,0.2365,0.1895,0.2015,0.0035,-0.273,-0.1705
0.084,-0.1,-0.184,0.008,0.134,-0.142,-0.0065,0.1525,0.128,0.2365,0.1875,0.201,0.0045,-0.2735,-0.1775
0.081,-0.095,-0.176,0.007,0.1285,-0.1355,-0.008,0.151,0.1265,0.236,0.187,0.1985,0.004,-0.278,-0.193
0.0775,-0.0945,-0.172,0.0085,0.125,-0.1335,-0.009,0.1475,0.127,0.2395,0.187,0.1985,0.007,-0.2815,-0.1925
0.0805,-0.0955,-0.176,0.0075,0.1285,-0.136,-0.0075,0.149,0.1315,0.243,0.1865,0.2005,0.0095,-0.278,-0.1945
0.071,-0.099,-0.17,0.014,0.1205,-0.1345,-0.009,0.153,0.133,0.244,0.1875,0.1995,0.008,-0.2845,-0.1995
0.084,-0.088,-0.1725,0.002,0.1285,-0.1305,-0.007,0.1535,0.1335,0.247,0.1915,0.202,0.0065,-0.2805,-0.1955
0.092,-0.0905,-0.1825,-0.0005,0.1375,-0.1365,-0.0095,0.148,0.129,0.2415,0.186,0.2,0.0075,-0.279,-0.1865
0.081,-0.0915,-0.172,0.0055,0.1265,-0.1315,-0.0105,0.147,0.1275,0.2385,0.185,0.1965,0.0085,-0.267,-0.178
0.0925,-0.073,-0.1655,-0.0095,0.129,-0.1195,-0.0075,0.1525,0.1315,0.2445,0.1905,0.202,0.0115,-0.261,-0.1855
0.0935,-0.069,-0.1625,-0.012,0.128,-0.1155,-0.0065,0.155,0.134,0.247,0.1915,0.204,0.012,-0.2725,-0.1895
0.102,-0.059,-0.161,-0.0215,0.1315,-0.11,-0.0035,0.159,0.1375,0.2485,0.1955,0.2075,0.009,-0.2585,-0.1745
0.103,-0.062,-0.165,-0.0205,0.134,-0.1135,-0.0065,0.1565,0.1335,0.2435,0.195,0.207,0.007,-0.26,-0.163
0.087,-0.078,-0.165,-0.0045,0.126,-0.1215,-0.011,0.15,0.1255,0.235,0.189,0.202,0.0075,-0.265,-0.1595
0.0815,-0.085,-0.1665,0.002,0.124,-0.126,-0.016,0.147,0.1195,0.23,0.1705,0.197,0.0065,-0.253,-0.154
0.081,-0.0815,-0.1625,0.0005,0.1215,-0.122,-0.0155,0.1455,0.118,0.2315,0.161,0.196,0.0035,-0.2445,-0.1465
0.082,-0.0815,-0.1635,0.0,0.1225,-0.1225,-0.0165,0.1435,0.1195,0.233,0.167,0.198,0.0025,-0.2495,-0.148
0.0815,-0.0845,-0.1665,0.0015,0.124,-0.1255,-0.0205,0.1435,0.1185,0.23,0.1705,0.1965,0.001,-0.2535,-0.1505
0.087,-0.0805,-0.1675,-0.003,0.127,-0.124,-0.015,0.1465,0.1195,0.23,0.176,0.1945,-0.002,-0.2565,-0.1495
0.077,-0.0935,-0.1705,0.008,0.124,-0.132,-0.011,0.1455,0.119,0.229,0.179,0.189,-0.007,-0.273,-0.158
0.067,-0.102,-0.169,0.0175,0.118,-0.1355,-0.0105,0.147,0.12,0.2275,0.182,0.187,-0.01,-0.2705,-0.159
0.0695,-0.0995,-0.169,0.015,0.1195,-0.134,-0.008,0.152,0.126,0.2315,0.1855,0.194,-0.007,-0.259,-0.15
0.0665,-0.104,-0.17,0.019,0.118,-0.137,-0.0105,0.142,0.1175,0.227,0.179,0.1875,-0.009,-0.256,-0.1525
0.0695,-0.1055,-0.1745,0.018,0.122,-0.14,-0.0135,0.136,0.1105,0.2235,0.1765,0.1825,-0.0105,-0.2565,-0.1655
0.075,-0.0985,-0.173,0.0115,0.124,-0.136,-0.0115,0.139,0.1155,0.228,0.1795,0.191,-0.0085,-0.2595,-0.174
0.075,-0.094,-0.169,0.009,0.122,-0.1315,-0.01,0.1405,0.1175,0.2325,0.1805,0.195,-0.0085,-0.267,-0.1775
0.0685,-0.1045,-0.173,0.018,0.121,-0.139,-0.011,0.1405,0.1145,0.2285,0.1815,0.195,-0.007,-0.274,-0.1845
0.067,-0.104,-0.1705,0.0185,0.1185,-0.1375,-0.0115,0.138,0.1135,0.223,0.185,0.195,-0.008,-0.271,-0.1785
0.08,-0.092,-0.172,0.006,0.126,-0.132,-0.0105,0.1405,0.118,0.228,0.189,0.198,-0.0055,-0.2655,-0.171
0.093,-0.0775,-0.1705,-0.008,0.132,-0.124,-0.0075,0.1465,0.124,0.2385,0.196,0.203,-0.0025,-0.259,-0.183
0.0995,-0.064,-0.163,-0.018,0.131,-0.1135,-0.004,0.149,0.1285,0.246,0.2005,0.203,-0.0035,-0.258,-0.1855
0.089,-0.072,-0.161,-0.009,0.125,-0.1165,-0.0075,0.142,0.123,0.242,0.195,0.1955,-0.005,-0.261,-0.1785
0.0735,-0.0805,-0.154,0.0035,0.114,-0.1175,-0.011,0.1425,0.12,0.2385,0.1925,0.194,-0.0035,-0.26,-0.1755
0.0765,-0.078,-0.1545,0.001,0.1155,-0.1165,-0.0145,0.1435,0.117,0.235,0.1905,0.193,-0.0015,-0.2535,-0.166
0.0845,-0.074,-0.1585,-0.0055,0.1215,-0.1165,-0.0145,0.1415,0.114,0.2325,0.191,0.189,-0.004,-0.25,-0.1585
0.086,-0.0755,-0.161,-0.005,0.1235,-0.1185,-0.0125,0.143,0.1165,0.2335,0.1915,0.186,-0.0065,-0.252,-0.158
0.085,-0.0865,-0.1715,0.001,0.128,-0.129,-0.0145,0.143,0.115,0.2325,0.189,0.184,-0.0075,-0.252,-0.154
0.0855,-0.0935,-0.179,0.004,0.1325,-0.136,-0.0155,0.1435,0.1145,0.232,0.189,0.186,-0.007,-0.253,-0.157
0.09,-0.0895,-0.18,-0.0005,0.135,-0.135,-0.011,0.146,0.117,0.234,0.1905,0.1895,-0.008,-0.2565,-0.168
0.1025,-0.077,-0.1795,-0.013,0.141,-0.128,-0.0045,0.153,0.124,0.241,0.1985,0.1965,-0.011,-0.269,-0.161
0.1295,-0.05,-0.18,-0.0395,0.155,-0.115,0.005,0.1645,0.133,0.2505,0.208,0.2065,-0.011,-0.2685,-0.151
0.1345,-0.048,-0.1825,-0.043,0.1585,-0.1155,0.0045,0.1655,0.134,0.2525,0.2085,0.21,-0.006,-0.2735,-0.1695
0.1025,-0.0865,-0.189,-0.008,0.1455,-0.1375,-0.0085,0.151,0.1205,0.2385,0.194,0.1985,-0.004,-0.2945,-0.178
0.068,-0.1195,-0.188,0.0255,0.128,-0.154,-0.0155,0.1435,0.108,0.227,0.184,0.191,-0.0045,-0.2955,-0.181
0.055,-0.1315,-0.1865,0.0385,0.121,-0.159,-0.0175,0.1405,0.1075,0.226,0.1825,0.1905,-0.0035,-0.284,-0.1785
0.06,-0.126,-0.186,0.033,0.123,-0.156,-0.022,0.138,0.109,0.2275,0.1815,0.1905,-0.0015,-0.2715,-0.1715
0.061,-0.116,-0.177,0.0275,0.119,-0.1465,-0.0215,0.141,0.1105,0.229,0.183,0.192,-0.004,-0.271,-0.172
0.0665,-0.1075,-0.1735,0.0205,0.12,-0.1405,-0.0175,0.1395,0.1075,0.2275,0.1805,0.1875,-0.01,-0.271,-0.1655
0.076,-0.091,-0.1665,0.0075,0.1215,-0.1285,-0.0165,0.1425,0.11,0.231,0.182,0.1905,-0.009,-0.256,-0.169
0.067,-0.098,-0.1655,0.0155,0.116,-0.1315,-0.022,0.133,0.102,0.2215,0.1735,0.185,-0.0055,-0.2525,-0.16
0.0525,-0.118,-0.171,0.033,0.1115,-0.1445,-0.0335,0.1185,0.085,0.203,0.1585,0.1745,-0.0045,-0.26,-0.161
0.0545,-0.1085,-0.163,0.027,0.109,-0.1355,-0.0335,0.123,0.0895,0.2065,0.1645,0.181,-0.0015,-0.2535,-0.1725
0.058,-0.1,-0.158,0.021,0.108,-0.129,-0.029,0.127,0.1005,0.2195,0.1735,0.186,0.0015,-0.242,-0.1635
0.068,-0.092,-0.16,0.012,0.114,-0.126,-0.029,0.1285,0.1065,0.2285,0.1805,0.1885,0.0025,-0.241,-0.1565
0.0775,-0.086,-0.1635,0.004,0.1205,-0.125,-0.0275,0.1315,0.1115,0.232,0.1845,0.189,0.004,-0.25,-0.1505
0.077,-0.088,-0.165,0.0055,0.121,-0.1265,-0.025,0.1325,0.115,0.228,0.18,0.1875,0.0035,-0.256,-0.152
0.087,-0.0855,-0.1725,-0.0005,0.13,-0.129,-0.02,0.1365,0.118,0.227,0.18,0.1875,0.001,-0.255,-0.151
0.0985,-0.0825,-0.1815,-0.008,0.14,-0.132,-0.015,0.145,0.124,0.232,0.1885,0.1915,0.003,-0.2635,-0.152
0.0965,-0.0845,-0.1815,-0.006,0.139,-0.133,-0.013,0.1465,0.129,0.2375,0.191,0.1945,0.0025,-0.27,-0.1575
0.079,-0.1045,-0.1835,0.0125,0.1315,-0.144,-0.014,0.144,0.128,0.2345,0.1835,0.191,-0.002,-0.276,-0.1615
0.067,-0.1145,-0.1815,0.0235,0.1245,-0.148,-0.0165,0.141,0.125,0.2295,0.1795,0.189,-0.0055,-0.2775,-0.159
0.063,-0.1145,-0.1775,0.026,0.12,-0.146,-0.0135,0.1435,0.125,0.2325,0.183,0.1925,-0.006,-0.271,-0.153
0.0685,-0.1125,-0.1805,0.022,0.1245,-0.1465,-0.0135,0.144,0.1205,0.232,0.183,0.194,-0.004,-0.268,-0.1575
0.0615,-0.1235,-0.185,0.031,0.123,-0.154,-0.0185,0.1355,0.111,0.226,0.1765,0.189,-0.0065,-0.273,-0.164
0.055,-0.128,-0.1825,0.0365,0.1185,-0.155,-0.016,0.1385,0.114,0.2295,0.18,0.1905,-0.007,-0.277,-0.169
0.062,-0.1185,-0.1805,0.0285,0.1215,-0.1495,-0.015,0.1385,0.113,0.23,0.183,0.1925,-0.006,-0.275,-0.1675
0.053,-0.126,-0.179,0.0365,0.116,-0.153,-0.019,0.1325,0.1055,0.226,0.1825,0.1875,-0.01,-0.2785,-0.17
0.051,-0.124,-0.175,0.0365,0.113,-0.1495,-0.019,0.133,0.104,0.226,0.184,0.1865,-0.0115,-0.275,-0.174
0.0405,-0.128,-0.1685,0.0435,0.1045,-0.1485,-0.0225,0.127,0.095,0.22,0.1795,0.182,-0.013,-0.2755,-0.1795
0.041,-0.126,-0.167,0.0425,0.104,-0.1465,-0.026,0.1245,0.088,0.216,0.176,0.179,-0.014,-0.274,-0.1825
0.051,-0.117,-0.1675,0.033,0.1095,-0.1425,-0.0245,0.125,0.09,0.2175,0.1745,0.1795,-0.0135,-0.2715,-0.179
0.057,-0.109,-0.166,0.026,0.1115,-0.1375,-0.0235,0.127,0.096,0.2235,0.1765,0.1815,-0.013,-0.266,-0.183
0.0655,-0.098,-0.163,0.0165,0.114,-0.1305,-0.0175,0.1315,0.104,0.227,0.1785,0.1855,-0.0135,-0.268,-0.183
0.075,-0.0935,-0.1685,0.009,0.122,-0.131,-0.0155,0.132,0.1045,0.2225,0.1755,0.186,-0.0135,-0.2695,-0.176
0.0905,-0.0805,-0.171,-0.005,0.1305,-0.1255,-0.0135,0.1345,0.106,0.219,0.176,0.189,-0.0115,-0.2585,-0.17
0.091,-0.0855,-0.177,-0.003,0.134,-0.1315,-0.0135,0.134,0.1055,0.218,0.172,0.1875,-0.01,-0.2635,-0.171
0.0905,-0.097,-0.1875,0.003,0.139,-0.142,-0.0175,0.131,0.1045,0.218,0.168,0.185,-0.0065,-0.2685,-0.1725
0.0785,-0.1035,-0.182,0.0125,0.1305,-0.143,-0.0125,0.1325,0.1075,0.2225,0.1725,0.189,-0.009,-0.2725,-0.172
0.077,-0.1065,-0.1835,0.0145,0.13,-0.145,-0.014,0.1335,0.1025,0.2215,0.1725,0.19,-0.01,-0.2705,-0.1655
0.0815,-0.0995,-0.181,0.009,0.131,-0.14,-0.0155,0.1315,0.101,0.22,0.173,0.191,-0.007,-0.2685,-0.169
0.074,-0.099,-0.173,0.0125,0.1235,-0.136,-0.016,0.1335,0.1025,0.2235,0.1745,0.1905,-0.0095,-0.275,-0.169
0.0785,-0.096,-0.174,0.0085,0.1265,-0.135,-0.017,0.1375,0.1035,0.225,0.176,0.191,-0.0065,-0.28,-0.1645
0.0765,-0.099,-0.175,0.011,0.126,-0.137,-0.018,0.135,0.1005,0.222,0.1785,0.189,-0.004,-0.2775,-0.1695
0.0675,-0.107,-0.174,0.02,0.1205,-0.1405,-0.018,0.135,0.0985,0.2185,0.1775,0.1855,-0.0075,-0.279,-0.173
0.0685,-0.109,-0.1775,0.02,0.123,-0.1435,-0.016,0.1365,0.0985,0.22,0.179,0.183,-0.0075,-0.2835,-0.173
0.074,-0.108,-0.1825,0.017,0.128,-0.1455,-0.0205,0.135,0.0965,0.2225,0.179,0.1805,-0.006,-0.278,-0.1665
0.069,-0.1175,-0.1865,0.024,0.1275,-0.152,-0.0205,0.132,0.0975,0.222,0.175,0.179,-0.0075,-0.2865,-0.175
0.055,-0.124,-0.1795,0.0345,0.117,-0.1515,-0.02,0.132,0.0975,0.221,0.1735,0.18,-0.0065,-0.294,-0.186
0.059,-0.1175,-0.177,0.0295,0.118,-0.1475,-0.0195,0.135,0.1,0.2235,0.176,0.183,-0.005,-0.281,-0.1825
0.072,-0.1075,-0.179,0.0175,0.1255,-0.1435,-0.0195,0.137,0.1015,0.2235,0.1765,0.1875,-0.005,-0.268,-0.1765
0.0585,-0.106,-0.1645,0.024,0.1115,-0.135,-0.018,0.142,0.1035,0.225,0.178,0.193,-0.005,-0.268,-0.1775
0.0545,-0.1125,-0.167,0.029,0.111,-0.14,-0.017,0.143,0.1045,0.227,0.1785,0.1925,-0.0055,-0.273,-0.1695
0.066,-0.111,-0.177,0.0225,0.1215,-0.144,-0.014,0.1425,0.105,0.226,0.178,0.1925,-0.007,-0.2725,-0.1645
0.0665,-0.11,-0.1765,0.022,0.1215,-0.1435,-0.0115,0.1435,0.1025,0.224,0.1785,0.192,-0.0095,-0.278,-0.173
0.0605,-0.107,-0.168,0.0235,0.1145,-0.1375,-0.0135,0.1425,0.1005,0.2225,0.179,0.192,-0.011,-0.275,-0.1655
0.048,-0.112,-0.16,0.032,0.104,-0.136,-0.015,0.14,0.099,0.222,0.1775,0.191,-0.0135,-0.264,-0.156
0.045,-0.1165,-0.1615,0.0355,0.1035,-0.139,-0.0185,0.138,0.0935,0.2175,0.172,0.1875,-0.013,-0.254,-0.142
0.051,-0.114,-0.1655,0.0315,0.108,-0.1395,-0.019,0.139,0.0965,0.217,0.1705,0.1865,-0.0115,-0.256,-0.138
0.0515,-0.1155,-0.167,0.032,0.109,-0.141,-0.0185,0.1375,0.0995,0.219,0.171,0.1845,-0.014,-0.262,-0.1535
0.0515,-0.119,-0.1705,0.034,0.111,-0.1445,-0.0185,0.134,0.0975,0.218,0.171,0.1855,-0.0135,-0.257,-0.147
0.0555,-0.1205,-0.1765,0.0325,0.116,-0.1485,-0.021,0.1305,0.0925,0.215,0.1705,0.185,-0.013,-0.2635,-0.1465
0.0505,-0.121,-0.1715,0.035,0.111,-0.1465,-0.0205,0.128,0.093,0.217,0.1725,0.1855,-0.0135,-0.266,-0.16
0.0445,-0.1245,-0.169,0.04,0.107,-0.147,-0.0185,0.128,0.096,0.2245,0.176,0.1845,-0.0145,-0.274,-0.171
0.0445,-0.124,-0.1685,0.04,0.1065,-0.1465,-0.021,0.1275,0.0965,0.2265,0.176,0.1805,-0.015,-0.2845,-0.188
0.049,-0.116,-0.165,0.0335,0.107,-0.1405,-0.017,0.13,0.101,0.228,0.176,0.1835,-0.0145,-0.2815,-0.1865
0.0715,-0.0985,-0.1695,0.0135,0.1205,-0.134,-0.007,0.1415,0.107,0.2345,0.181,0.1925,-0.0125,-0.2835,-0.175
0.0895,-0.0845,-0.174,-0.002,0.1315,-0.1295,0.001,0.1515,0.113,0.241,0.189,0.202,-0.0095,-0.2915,-0.1725
0.11,-0.0715,-0.1815,-0.019,0.1455,-0.1265,-0.0005,0.1485,0.112,0.239,0.188,0.201,-0.009,-0.282,-0.1725
0.1065,-0.078,-0.1845,-0.014,0.1455,-0.1315,-0.012,0.137,0.101,0.2285,0.1775,0.193,-0.0075,-0.27,-0.1695
0.086,-0.097,-0.183,0.0055,0.134,-0.14,-0.0205,0.1285,0.0945,0.221,0.1695,0.187,-0.007,-0.2765,-0.166
0.0875,-0.0945,-0.1815,0.0035,0.1345,-0.138,-0.0235,0.129,0.095,0.2205,0.1695,0.189,-0.0045,-0.268,-0.171
0.092,-0.0865,-0.179,-0.003,0.136,-0.133,-0.0195,0.1345,0.099,0.2255,0.1745,0.1945,-0.0045,-0.2675,-0.1695
0.089,-0.086,-0.1755,-0.0015,0.1325,-0.131,-0.015,0.1375,0.1015,0.2275,0.177,0.197,-0.0075,-0.271,-0.1605
0.067,-0.1045,-0.171,0.019,0.119,-0.138,-0.023,0.133,0.095,0.2165,0.17,0.1905,-0.0075,-0.267,-0.156
0.0525,-0.114,-0.1665,0.031,0.1095,-0.14,-0.0265,0.1305,0.0905,0.21,0.1645,0.1825,-0.012,-0.2645,-0.1545
0.037,-0.129,-0.166,0.046,0.1015,-0.1475,-0.027,0.127,0.0895,0.206,0.159,0.177,-0.0155,-0.2565,-0.155
0.018,-0.1485,-0.166,0.065,0.092,-0.1575,-0.0345,0.1175,0.084,0.2005,0.1525,0.171,-0.0145,-0.26,-0.1575
0.035,-0.133,-0.168,0.049,0.1015,-0.1505,-0.0275,0.1225,0.09,0.209,0.1625,0.1795,-0.0125,-0.2665,-0.156
0.064,-0.111,-0.175,0.0235,0.1195,-0.143,-0.015,0.1375,0.101,0.223,0.1765,0.1915,-0.008,-0.2645,-0.1495
0.085,-0.0995,-0.1845,0.007,0.135,-0.142,-0.0125,0.1405,0.102,0.2255,0.1805,0.195,-0.0045,-0.275,-0.156
0.1035,-0.0935,-0.197,-0.005,0.1505,-0.1455,-0.0115,0.142,0.1015,0.224,0.181,0.198,-0.001,-0.2865,-0.1625
0.1045,-0.091,-0.1955,-0.0065,0.15,-0.143,-0.0115,0.1405,0.102,0.2285,0.181,0.1985,-0.001,-0.281,-0.1665
0.1055,-0.09,-0.1955,-0.008,0.1505,-0.1425,-0.012,0.138,0.099,0.23,0.1815,0.196,-0.002,-0.289,-0.172
0.0915,-0.102,-0.1935,0.005,0.1425,-0.148,-0.015,0.14,0.098,0.228,0.183,0.196,0.0025,-0.2945,-0.1845
0.068,-0.1215,-0.1895,0.027,0.1285,-0.1555,-0.0195,0.132,0.0945,0.226,0.18,0.1945,0.0055,-0.3005,-0.1925
0.0705,-0.1175,-0.188,0.0235,0.1295,-0.153,-0.018,0.131,0.0985,0.2265,0.1805,0.1955,0.0035,-0.294,-0.1925
0.069,-0.113,-0.1815,0.022,0.1255,-0.147,-0.013,0.136,0.105,0.2285,0.182,0.198,-0.001,-0.284,-0.1895
0.0595,-0.1145,-0.174,0.0275,0.117,-0.1445,-0.013,0.133,0.102,0.224,0.171,0.195,-0.006,-0.286,-0.19
0.0685,-0.104,-0.1725,0.0175,0.1205,-0.1385,-0.0145,0.1305,0.1005,0.22,0.158,0.192,-0.008,-0.2805,-0.194
0.0765,-0.1005,-0.177,0.012,0.1265,-0.1385,-0.015,0.1285,0.099,0.2185,0.1545,0.188,-0.0095,-0.283,-0.1865
0.0755,-0.101,-0.1765,0.0125,0.126,-0.139,-0.021,0.1235,0.0965,0.2145,0.157,0.185,-0.007,-0.2775,-0.1825
0.0715,-0.104,-0.1755,0.0165,0.1235,-0.14,-0.0215,0.1235,0.097,0.216,0.163,0.1845,-0.001,-0.2775,-0.176
0.065,-0.1075,-0.172,0.021,0.1185,-0.1395,-0.02,0.1225,0.0935,0.215,0.1685,0.182,-0.001,-0.276,-0.1635
0.0685,-0.103,-0.1715,0.017,0.12,-0.137,-0.021,0.121,0.091,0.213,0.174,0.181,-0.0025,-0.261,-0.161
0.0755,-0.0995,-0.1745,0.012,0.125,-0.137,-0.021,0.1245,0.091,0.217,0.176,0.181,-0.0025,-0.2555,-0.1665
0.072,-0.0995,-0.1715,0.0135,0.1215,-0.1355,-0.021,0.126,0.0935,0.221,0.1775,0.1815,-0.0045,-0.2615,-0.168
0.071,-0.1,-0.1705,0.0145,0.121,-0.135,-0.0215,0.126,0.0925,0.2145,0.178,0.177,-0.0095,-0.268,-0.162
0.072,-0.1075,-0.1795,0.0175,0.1255,-0.1435,-0.021,0.128,0.0955,0.212,0.1765,0.1765,-0.0115,-0.274,-0.164
0.0715,-0.1205,-0.192,0.0245,0.1315,-0.1565,-0.018,0.1285,0.099,0.2175,0.175,0.1805,-0.011,-0.281,-0.166
0.074,-0.122,-0.196,0.024,0.135,-0.159,-0.017,0.1315,0.0965,0.219,0.176,0.181,-0.011,-0.2765,-0.1565
0.067,-0.1205,-0.1875,0.027,0.1275,-0.154,-0.0165,0.134,0.1005,0.2255,0.179,0.1865,-0.0105,-0.2785,-0.177
0.058,-0.126,-0.184,0.034,0.121,-0.155,-0.0185,0.13,0.0975,0.223,0.1785,0.186,-0.0095,-0.295,-0.1965
0.0565,-0.125,-0.182,0.0345,0.1195,-0.1535,-0.0165,0.1345,0.095,0.222,0.1765,0.186,-0.009,-0.2965,-0.188
0.0585,-0.1235,-0.182,0.0325,0.12,-0.153,-0.0135,0.135,0.0965,0.2215,0.1695,0.1855,-0.0125,-0.2965,-0.186
0.061,-0.124,-0.185,0.0315,0.123,-0.1545,-0.0145,0.1325,0.0945,0.2185,0.1675,0.183,-0.014,-0.292,-0.186
0.062,-0.121,-0.183,0.03,0.1225,-0.152,-0.014,0.13,0.093,0.22,0.1715,0.1835,-0.0125,-0.2885,-0.1875
0.0585,-0.125,-0.1835,0.0335,0.121,-0.1545,-0.0155,0.1255,0.086,0.216,0.1715,0.1815,-0.0125,-0.3,-0.1895
0.061,-0.1205,-0.1815,0.03,0.121,-0.151,-0.0135,0.128,0.0865,0.216,0.176,0.1815,-0.0135,-0.2915,-0.1835
0.0745,-0.104,-0.1785,0.0145,0.1265,-0.141,-0.009,0.1305,0.089,0.22,0.179,0.185,-0.0145,-0.2845,-0.183
0.092,-0.085,-0.1775,-0.0035,0.135,-0.1315,-0.0085,0.133,0.0945,0.2265,0.1825,0.1915,-0.012,-0.2825,-0.185
0.1005,-0.074,-0.1745,-0.0135,0.1375,-0.124,-0.008,0.1385,0.1,0.2285,0.184,0.195,-0.0095,-0.278,-0.184
0.0985,-0.0765,-0.1755,-0.011,0.137,-0.126,-0.0065,0.1355,0.095,0.223,0.18,0.1925,-0.0095,-0.2785,-0.1855
0.085,-0.0865,-0.1715,0.001,0.128,-0.129,-0.0055,0.135,0.0945,0.2205,0.18,0.193,-0.01,-0.2775,-0.1795
0.063,-0.106,-0.169,0.0215,0.116,-0.1375,-0.011,0.131,0.089,0.216,0.1755,0.1895,-0.007,-0.274,-0.177
0.06,-0.1145,-0.1745,0.027,0.1175,-0.1445,-0.017,0.1255,0.0845,0.2115,0.1705,0.1825,-0.006,-0.2675,-0.1785
0.0675,-0.111,-0.1785,0.022,0.123,-0.145,-0.0145,0.1295,0.088,0.215,0.173,0.1835,-0.009,-0.265,-0.1665
0.063,-0.1115,-0.174,0.024,0.1185,-0.1425,-0.0115,0.131,0.089,0.216,0.175,0.1855,-0.013,-0.2645,-0.1545
0.0695,-0.1065,-0.176,0.0185,0.1225,-0.1415,-0.0075,0.136,0.0935,0.2195,0.1805,0.192,-0.0135,-0.267,-0.152
0.0765,-0.111,-0.1875,0.0175,0.132,-0.1495,-0.004,0.14,0.099,0.226,0.1885,0.1975,-0.012,-0.275,-0.1555
0.067,-0.1185,-0.186,0.026,0.1265,-0.1525,-0.0055,0.138,0.098,0.2245,0.1845,0.1955,-0.014,-0.2765,-0.1565
0.067,-0.1165,-0.1835,0.025,0.125,-0.15,-0.0055,0.1355,0.097,0.225,0.181,0.195,-0.015,-0.2715,-0.1585
0.0665,-0.1185,-0.185,0.026,0.1255,-0.152,-0.007,0.1345,0.1005,0.2245,0.18,0.1935,-0.0165,-0.277,-0.168
0.066,-0.1185,-0.185,0.0265,0.1255,-0.1515,-0.0085,0.132,0.1,0.2235,0.177,0.1915,-0.017,-0.288,-0.178
0.0715,-0.114,-0.1855,0.021,0.1285,-0.15,-0.004,0.135,0.1025,0.2275,0.1815,0.193,-0.0175,-0.2935,-0.177
0.0755,-0.1075,-0.183,0.0155,0.129,-0.145,-0.001,0.1395,0.105,0.231,0.1835,0.198,-0.0165,-0.287,-0.1745
0.083,-0.0945,-0.178,0.006,0.1305,-0.136,0.0,0.142,0.1075,0.236,0.185,0.201,-0.014,-0.2785,-0.1785
0.097,-0.0825,-0.1795,-0.007,0.138,-0.131,0.0035,0.1445,0.1135,0.239,0.189,0.2005,-0.0145,-0.281,-0.179
0.105,-0.0765,-0.1815,-0.014,0.143,-0.129,0.0035,0.1465,0.1125,0.238,0.1885,0.1985,-0.015,-0.296,-0.182
0.09,-0.0845,-0.1745,-0.003,0.1325,-0.1295,-0.0005,0.146,0.108,0.235,0.1845,0.1965,-0.011,-0.291,-0.1885
0.069,-0.104,-0.1725,0.0175,0.1205,-0.138,-0.0115,0.137,0.0975,0.2235,0.1775,0.1895,-0.0085,-0.272,-0.19
0.061,-0.113,-0.174,0.0255,0.1175,-0.1435,-0.0175,0.1315,0.091,0.2175,0.173,0.1845,-0.009,-0.2755,-0.1895
0.0565,-0.1145,-0.171,0.029,0.114,-0.1425,-0.016,0.1305,0.091,0.219,0.172,0.1835,-0.0095,-0.2865,-0.181
0.0445,-0.125,-0.1695,0.0405,0.107,-0.1475,-0.0195,0.128,0.0875,0.2135,0.168,0.1795,-0.0115,-0.284,-0.174
0.0305,-0.138,-0.168,0.0535,0.0995,-0.153,-0.022,0.1245,0.083,0.207,0.162,0.1745,-0.0135,-0.273,-0.175
0.0295,-0.135,-0.1645,0.0525,0.097,-0.15,-0.022,0.1225,0.0835,0.2045,0.162,0.172,-0.017,-0.267,-0.173
0.0455,-0.1185,-0.164,0.0365,0.105,-0.1415,-0.019,0.1265,0.089,0.2105,0.166,0.178,-0.016,-0.261,-0.173
0.055,-0.114,-0.1695,0.0295,0.112,-0.1415,-0.02,0.1285,0.091,0.2135,0.1665,0.1795,-0.0135,-0.2745,-0.1675
0.0565,-0.1145,-0.171,0.029,0.114,-0.1425,-0.019,0.13,0.09,0.2145,0.17,0.18,-0.0135,-0.284,-0.173
0.064,-0.116,-0.18,0.026,0.122,-0.148,-0.0125,0.1345,0.094,0.221,0.175,0.187,-0.0135,-0.2795,-0.181
0.071,-0.1175,-0.189,0.0235,0.13,-0.1535,-0.01,0.1385,0.0995,0.225,0.1785,0.191,-0.013,-0.2855,-0.1825
0.0685,-0.116,-0.1845,0.0235,0.1265,-0.15,-0.008,0.138,0.0985,0.225,0.1795,0.1905,-0.013,-0.288,-0.184
0.0675,-0.1155,-0.183,0.024,0.125,-0.1495,-0.006,0.1375,0.0975,0.224,0.1785,0.191,-0.015,-0.294,-0.1785
0.066,-0.1135,-0.1795,0.0235,0.1225,-0.1465,-0.0075,0.138,0.098,0.2245,0.1805,0.194,-0.014,-0.302,-0.188
0.0585,-0.121,-0.1795,0.031,0.119,-0.1505,-0.0115,0.134,0.095,0.2195,0.177,0.189,-0.0155,-0.3015,-0.1935
0.06,-0.1245,-0.1845,0.0325,0.122,-0.1545,-0.0135,0.1315,0.0945,0.219,0.176,0.1875,-0.015,-0.2935,-0.194
0.0665,-0.12,-0.1865,0.027,0.1265,-0.1535,-0.011,0.133,0.096,0.2215,0.179,0.1905,-0.0125,-0.296,-0.2005
0.0725,-0.1155,-0.188,0.0215,0.1305,-0.152,-0.008,0.1365,0.098,0.223,0.1765,0.19,-0.013,-0.302,-0.1975
0.073,-0.112,-0.1855,0.0195,0.1295,-0.1485,-0.0115,0.133,0.0965,0.2225,0.1725,0.187,-0.013,-0.297,-0.1955
0.068,-0.112,-0.1805,0.022,0.1245,-0.146,-0.0135,0.129,0.09,0.217,0.1695,0.182,-0.014,-0.2945,-0.1905
0.0745,-0.101,-0.176,0.013,0.1255,-0.1385,-0.01,0.1335,0.0925,0.222,0.173,0.188,-0.011,-0.284,-0.1915
0.092,-0.08,-0.172,-0.006,0.132,-0.126,-0.0045,0.1405,0.098,0.2295,0.1805,0.1965,-0.0105,-0.2815,-0.199
0.0965,-0.0745,-0.1715,-0.011,0.134,-0.123,-0.0015,0.144,0.097,0.229,0.1805,0.2,-0.0115,-0.294,-0.194
0.0925,-0.0855,-0.1785,-0.003,0.1355,-0.132,-0.0055,0.139,0.0935,0.2245,0.1765,0.199,-0.0085,-0.294,-0.184
0.067,-0.1045,-0.1715,0.019,0.119,-0.138,-0.014,0.132,0.086,0.218,0.171,0.1935,-0.0085,-0.2865,-0.179
0.05,-0.1195,-0.1695,0.035,0.1095,-0.1445,-0.019,0.1265,0.078,0.211,0.1655,0.188,-0.0125,-0.281,-0.1695
0.059,-0.114,-0.173,0.0275,0.116,-0.1435,-0.0165,0.1285,0.078,0.212,0.1675,0.1885,-0.013,-0.279,-0.1665
0.0675,-0.1075,-0.1745,0.02,0.121,-0.141,-0.016,0.1295,0.0815,0.211,0.1695,0.1895,-0.0135,-0.274,-0.1715
0.0765,-0.1065,-0.183,0.015,0.1295,-0.1445,-0.0125,0.1295,0.083,0.21,0.17,0.187,-0.016,-0.2735,-0.1715
0.0725,-0.1075,-0.18,0.0175,0.1265,-0.144,-0.011,0.133,0.088,0.214,0.1725,0.1895,-0.016,-0.2775,-0.1695
0.0685,-0.117,-0.1855,0.0245,0.127,-0.1515,-0.0125,0.131,0.092,0.2155,0.1725,0.192,-0.015,-0.2825,-0.1705
0.069,-0.1205,-0.1895,0.0255,0.129,-0.155,-0.0125,0.1285,0.092,0.2125,0.1705,0.19,-0.016,-0.288,-0.178
0.0675,-0.1175,-0.185,0.025,0.1265,-0.1515,-0.013,0.1305,0.0965,0.2125,0.168,0.1905,-0.019,-0.287,-0.171
0.066,-0.118,-0.1835,0.0265,0.1245,-0.151,-0.0115,0.1325,0.098,0.215,0.1675,0.19,-0.0195,-0.287,-0.172
0.068,-0.1155,-0.184,0.024,0.126,-0.15,-0.012,0.1335,0.097,0.216,0.1695,0.19,-0.0195,-0.294,-0.188
0.07,-0.119,-0.189,0.0245,0.1295,-0.154,-0.0135,0.1335,0.097,0.2185,0.172,0.191,-0.0175,-0.297,-0.1865
0.0635,-0.122,-0.185,0.0295,0.1245,-0.1535,-0.013,0.1325,0.098,0.2195,0.1745,0.19,-0.0155,-0.297,-0.189
0.062,-0.122,-0.1835,0.03,0.123,-0.153,-0.014,0.131,0.0985,0.22,0.1755,0.189,-0.015,-0.3005,-0.1975
0.069,-0.1205,-0.1895,0.0255,0.1295,-0.155,-0.017,0.1275,0.095,0.2215,0.173,0.1855,-0.0145,-0.2955,-0.197
0.077,-0.1085,-0.186,0.0155,0.1315,-0.147,-0.0175,0.1285,0.0965,0.2235,0.174,0.1865,-0.0125,-0.29,-0.1965
0.074,-0.1085,-0.1825,0.017,0.1285,-0.1455,-0.0175,0.131,0.0955,0.2215,0.172,0.1845,-0.013,-0.2925,-0.1945
0.0685,-0.1115,-0.18,0.021,0.1245,-0.1455,-0.017,0.1315,0.0925,0.22,0.1695,0.182,-0.0145,-0.293,-0.193
0.0695,-0.104,-0.1735,0.017,0.1215,-0.139,-0.0135,0.1315,0.096,0.22,0.17,0.184,-0.0155,-0.2925,-0.192
0.077,-0.1005,-0.177,0.0115,0.127,-0.1385,-0.0105,0.1335,0.0975,0.221,0.172,0.1865,-0.015,-0.2875,-0.19
0.0885,-0.0915,-0.18,0.0015,0.1345,-0.136,-0.0125,0.1355,0.099,0.2235,0.1765,0.1925,-0.0105,-0.2815,-0.184
0.101,-0.076,-0.177,-0.0125,0.139,-0.1265,-0.0085,0.1375,0.101,0.226,0.1805,0.1975,-0.011,-0.2845,-0.1765
0.1105,-0.068,-0.1785,-0.0215,0.1445,-0.123,-0.0055,0.135,0.101,0.228,0.1805,0.1955,-0.014,-0.286,-0.178
0.111,-0.0685,-0.1795,-0.021,0.1455,-0.124,-0.008,0.1325,0.097,0.2255,0.1775,0.191,-0.0165,-0.2825,-0.1795
0.109,-0.0705,-0.1795,-0.0195,0.1445,-0.125,-0.0075,0.133,0.0955,0.225,0.1795,0.192,-0.014,-0.2785,-0.184
0.0945,-0.0895,-0.184,-0.0025,0.1395,-0.1365,-0.011,0.128,0.0915,0.2185,0.1755,0.189,-0.0135,-0.2815,-0.177
0.08,-0.1125,-0.1925,0.0165,0.1365,-0.1525,-0.012,0.128,0.088,0.2135,0.1715,0.1855,-0.014,-0.287,-0.1675
0.0765,-0.1205,-0.197,0.022,0.1365,-0.1585,-0.011,0.1265,0.088,0.2125,0.171,0.184,-0.0155,-0.2905,-0.1745
0.0625,-0.133,-0.1955,0.0355,0.129,-0.164,-0.0145,0.122,0.088,0.21,0.1695,0.1805,-0.0175,-0.2905,-0.1705
0.0565,-0.133,-0.189,0.038,0.123,-0.161,-0.014,0.1245,0.0915,0.214,0.17,0.1855,-0.0145,-0.293,-0.172
0.0535,-0.1315,-0.185,0.039,0.1195,-0.158,-0.0125,0.126,0.096,0.217,0.171,0.1875,-0.016,-0.296,-0.18
0.0535,-0.1405,-0.1935,0.0435,0.1235,-0.167,-0.0155,0.1215,0.0915,0.214,0.166,0.1825,-0.0175,-0.303,-0.1865
0.067,-0.129,-0.1965,0.031,0.1315,-0.1625,-0.0155,0.1215,0.0905,0.2125,0.1535,0.183,-0.0185,-0.309,-0.1835
0.0945,-0.0975,-0.192,0.002,0.143,-0.145,-0.0035,0.135,0.1035,0.2245,0.158,0.1945,-0.0185,-0.2995,-0.1745
0.1045,-0.0815,-0.186,-0.0115,0.145,-0.134,0.001,0.1375,0.1055,0.227,0.164,0.1965,-0.019,-0.289,-0.177
0.101,-0.0825,-0.1835,-0.009,0.1425,-0.133,-0.0045,0.134,0.101,0.2225,0.1655,0.192,-0.0215,-0.2865,-0.175
0.1075,-0.0745,-0.182,-0.0165,0.1445,-0.128,-0.005,0.135,0.1055,0.228,0.174,0.195,-0.0195,-0.2865,-0.1835
0.101,-0.0735,-0.1745,-0.014,0.1375,-0.124,-0.0065,0.135,0.106,0.228,0.18,0.192,-0.0185,-0.2815,-0.189
0.0885,-0.0825,-0.171,-0.003,0.13,-0.127,-0.009,0.132,0.101,0.226,0.185,0.1885,-0.018,-0.2755,-0.193
0.0555,-0.1215,-0.177,0.033,0.116,-0.149,-0.0195,0.118,0.0895,0.211,0.1695,0.175,-0.0215,-0.2825,-0.187
0.0475,-0.1385,-0.186,0.0455,0.117,-0.1625,-0.03,0.109,0.082,0.199,0.152,0.1645,-0.021,-0.2855,-0.1685
0.06,-0.1295,-0.1895,0.035,0.125,-0.1595,-0.0325,0.109,0.082,0.199,0.1515,0.1655,-0.0185,-0.284,-0.169
0.052,-0.139,-0.1905,0.0435,0.121,-0.1645,-0.032,0.1125,0.0835,0.197,0.1515,0.166,-0.0165,-0.2865,-0.167
0.056,-0.133,-0.189,0.0385,0.1225,-0.161,-0.026,0.119,0.0905,0.2015,0.158,0.171,-0.0135,-0.285,-0.1635
0.0665,-0.1185,-0.185,0.026,0.126,-0.152,-0.0195,0.126,0.0935,0.2085,0.165,0.179,-0.0145,-0.282,-0.1645
0.073,-0.1125,-0.1855,0.0195,0.1295,-0.149,-0.016,0.1265,0.089,0.208,0.1665,0.1825,-0.014,-0.2835,-0.1635
0.0715,-0.1205,-0.192,0.0245,0.1315,-0.1565,-0.012,0.1295,0.096,0.2145,0.173,0.1855,-0.012,-0.295,-0.1575
0.077,-0.1155,-0.1925,0.019,0.135,-0.154,-0.008,0.134,0.105,0.2235,0.1795,0.1895,-0.012,-0.29,-0.1475
0.075,-0.112,-0.187,0.0185,0.131,-0.1495,-0.0125,0.13,0.1025,0.2215,0.177,0.188,-0.012,-0.275,-0.147
0.066,-0.1225,-0.1885,0.028,0.1275,-0.1555,-0.015,0.1275,0.098,0.219,0.173,0.1855,-0.012,-0.272,-0.147
0.067,-0.123,-0.19,0.028,0.1285,-0.1565,-0.0135,0.1275,0.0985,0.22,0.175,0.187,-0.012,-0.2815,-0.1545
0.0655,-0.1255,-0.191,0.03,0.1285,-0.158,-0.0135,0.133,0.103,0.224,0.179,0.1905,-0.009,-0.2875,-0.167
0.068,-0.123,-0.191,0.028,0.129,-0.157,-0.0135,0.13,0.105,0.2235,0.1785,0.19,-0.0115,-0.29,-0.177
0.0715,-0.1165,-0.188,0.0225,0.1295,-0.152,-0.0105,0.1275,0.1055,0.2235,0.1775,0.1905,-0.0145,-0.294,-0.188
0.079,-0.1125,-0.192,0.017,0.1355,-0.1525,-0.0085,0.1285,0.1035,0.222,0.177,0.1905,-0.014,-0.2885,-0.182
0.0755,-0.105,-0.1805,0.0145,0.128,-0.1425,-0.01,0.126,0.101,0.22,0.177,0.1885,-0.0165,-0.289,-0.176
0.074,-0.104,-0.1785,0.0145,0.1265,-0.141,-0.011,0.1275,0.099,0.2205,0.1745,0.1885,-0.0155,-0.2845,-0.172
0.087,-0.102,-0.189,0.0075,0.138,-0.1455,-0.012,0.1275,0.097,0.218,0.1725,0.1885,-0.014,-0.29,-0.1685
0.0785,-0.1025,-0.1815,0.012,0.13,-0.142,-0.0155,0.1225,0.093,0.214,0.171,0.186,-0.014,-0.279,-0.1695
0.0725,-0.11,-0.1825,0.019,0.1275,-0.146,-0.017,0.1215,0.085,0.2115,0.167,0.181,-0.018,-0.2685,-0.164
0.081,-0.105,-0.186,0.012,0.1335,-0.1455,-0.0175,0.1215,0.08,0.211,0.1625,0.1775,-0.0215,-0.278,-0.1685
0.0885,-0.104,-0.192,0.0075,0.14,-0.148,-0.022,0.1195,0.075,0.2055,0.155,0.171,-0.021,-0.2795,-0.1695
0.0875,-0.107,-0.194,0.0095,0.1405,-0.1505,-0.022,0.118,0.075,0.202,0.1545,0.171,-0.021,-0.278,-0.162
0.0795,-0.1095,-0.189,0.015,0.134,-0.1495,-0.023,0.1175,0.0745,0.1995,0.1535,0.17,-0.0225,-0.268,-0.1595
0.0755,-0.115,-0.191,0.0195,0.133,-0.153,-0.023,0.12,0.079,0.201,0.1535,0.167,-0.023,-0.2705,-0.153
0.075,-0.113,-0.188,0.019,0.1315,-0.1505,-0.021,0.1255,0.0865,0.2075,0.157,0.1735,-0.02,-0.2705,-0.149
0.057,-0.134,-0.191,0.0385,0.124,-0.1625,-0.025,0.12,0.083,0.206,0.154,0.1695,-0.021,-0.283,-0.146
0.0465,-0.148,-0.1945,0.0505,0.1205,-0.171,-0.025,0.114,0.0815,0.206,0.1545,0.168,-0.0205,-0.2915,-0.1495
0.057,-0.137,-0.194,0.04,0.1255,-0.1655,-0.021,0.1245,0.0855,0.208,0.159,0.1735,-0.018,-0.2905,-0.171
0.0615,-0.1325,-0.1945,0.0355,0.128,-0.1635,-0.0195,0.1295,0.088,0.2095,0.164,0.1765,-0.017,-0.2895,-0.172
0.074,-0.1175,-0.192,0.0215,0.133,-0.1545,-0.0125,0.134,0.0935,0.2175,0.171,0.183,-0.018,-0.2845,-0.158
0.082,-0.1035,-0.1855,0.0105,0.134,-0.144,-0.0055,0.1415,0.1005,0.226,0.1795,0.192,-0.018,-0.28,-0.1495
0.083,-0.1025,-0.1855,0.01,0.134,-0.144,-0.008,0.137,0.0985,0.227,0.18,0.1925,-0.016,-0.261,-0.1395
0.07,-0.118,-0.188,0.024,0.129,-0.153,-0.0155,0.128,0.0905,0.219,0.172,0.184,-0.0155,-0.261,-0.1415
0.0485,-0.134,-0.1825,0.043,0.1155,-0.158,-0.023,0.122,0.0845,0.2085,0.1645,0.18,-0.0145,-0.2695,-0.153
0.054,-0.1295,-0.1835,0.0375,0.119,-0.1565,-0.024,0.1155,0.0775,0.205,0.1595,0.176,-0.018,-0.2735,-0.1585
0.07,-0.117,-0.1865,0.0235,0.1285,-0.152,-0.0215,0.1165,0.076,0.208,0.161,0.1765,-0.0195,-0.274,-0.159
0.079,-0.105,-0.1845,0.013,0.1315,-0.1445,-0.0205,0.121,0.079,0.209,0.1625,0.1785,-0.018,-0.268,-0.16
0.077,-0.1035,-0.1805,0.013,0.129,-0.142,-0.0195,0.121,0.0805,0.21,0.1625,0.1775,-0.0195,-0.2665,-0.158
0.0675,-0.104,-0.171,0.0185,0.119,-0.1375,-0.0165,0.125,0.085,0.213,0.166,0.1795,-0.0215,-0.262,-0.1595
0.0565,-0.1105,-0.167,0.027,0.1115,-0.1385,-0.0185,0.123,0.0815,0.21,0.162,0.178,-0.0215,-0.2595,-0.1545
0.0515,-0.1215,-0.173,0.035,0.112,-0.1475,-0.0255,0.115,0.0715,0.201,0.149,0.168,-0.0225,-0.2665,-0.152
0.0585,-0.12,-0.1785,0.031,0.1185,-0.1495,-0.025,0.116,0.071,0.201,0.144,0.1675,-0.0245,-0.2695,-0.1505
0.061,-0.1125,-0.173,0.026,0.117,-0.143,-0.0225,0.1215,0.075,0.2045,0.149,0.173,-0.0225,-0.2525,-0.1415
0.059,-0.114,-0.1725,0.0275,0.1155,-0.1435,-0.022,0.123,0.0755,0.202,0.151,0.173,-0.023,-0.245,-0.1405
0.0585,-0.116,-0.175,0.029,0.1165,-0.1455,-0.0175,0.1255,0.0775,0.204,0.1555,0.1765,-0.022,-0.2575,-0.1435
0.0665,-0.1095,-0.176,0.0215,0.1215,-0.143,-0.0125,0.133,0.085,0.212,0.164,0.183,-0.0215,-0.272,-0.1535
0.09,-0.1015,-0.1915,0.0055,0.1405,-0.1465,-0.0055,0.1395,0.092,0.218,0.1715,0.188,-0.0215,-0.2815,-0.151
0.093,-0.1005,-0.1935,0.004,0.143,-0.147,-0.006,0.138,0.0925,0.2185,0.1705,0.186,-0.0225,-0.2875,-0.1515
0.0735,-0.113,-0.1865,0.0195,0.13,-0.1495,-0.015,0.1295,0.085,0.2115,0.1645,0.1795,-0.0235,-0.2925,-0.1705
0.0615,-0.1255,-0.187,0.0325,0.124,-0.1565,-0.019,0.123,0.079,0.206,0.1615,0.1745,-0.0235,-0.2875,-0.175
0.0715,-0.116,-0.1875,0.0225,0.1295,-0.152,-0.015,0.1285,0.0855,0.212,0.164,0.1785,-0.0245,-0.2805,-0.172
0.067,-0.116,-0.183,0.0245,0.125,-0.1495,-0.0145,0.131,0.0865,0.214,0.1635,0.182,-0.0245,-0.2815,-0.1665
0.032,-0.147,-0.179,0.0575,0.1055,-0.163,-0.023,0.1205,0.0765,0.204,0.1565,0.173,-0.0235,-0.2775,-0.169
0.025,-0.1515,-0.1765,0.063,0.1005,-0.164,-0.0255,0.1165,0.0735,0.201,0.1535,0.168,-0.026,-0.2705,-0.166
0.0345,-0.1355,-0.1695,0.0505,0.102,-0.1525,-0.0235,0.117,0.075,0.2035,0.1545,0.167,-0.029,-0.274,-0.163
0.049,-0.125,-0.174,0.038,0.1115,-0.1495,-0.024,0.116,0.075,0.202,0.155,0.167,-0.0285,-0.273,-0.171
0.061,-0.119,-0.18,0.029,0.1205,-0.1495,-0.0215,0.117,0.076,0.202,0.156,0.1695,-0.028,-0.2715,-0.1685
0.058,-0.1205,-0.1785,0.031,0.1185,-0.1495,-0.0205,0.1175,0.076,0.2015,0.1555,0.169,-0.028,-0.2825,-0.1715
0.059,-0.119,-0.1785,0.03,0.119,-0.149,-0.0185,0.12,0.078,0.202,0.155,0.171,-0.0275,-0.282,-0.166
0.062,-0.111,-0.1725,0.0245,0.117,-0.142,-0.0155,0.125,0.083,0.2075,0.1595,0.1775,-0.0255,-0.277,-0.1575
0.08,-0.0945,-0.1745,0.0075,0.127,-0.1345,-0.013,0.1275,0.088,0.212,0.1655,0.181,-0.0235,-0.2765,-0.158
0.1025,-0.078,-0.1805,-0.012,0.1415,-0.1295,-0.0085,0.133,0.0965,0.218,0.1725,0.184,-0.021,-0.2775,-0.1595
0.103,-0.073,-0.1765,-0.015,0.1395,-0.1245,-0.007,0.134,0.1,0.22,0.174,0.1845,-0.0215,-0.285,-0.165
0.088,-0.089,-0.177,0.0005,0.1325,-0.133,-0.0095,0.13,0.0955,0.2165,0.172,0.1835,-0.024,-0.28,-0.162
0.0795,-0.1025,-0.182,0.0115,0.131,-0.142,-0.0095,0.1325,0.096,0.216,0.1735,0.187,-0.022,-0.279,-0.159
0.0695,-0.111,-0.1805,0.0205,0.125,-0.146,-0.0115,0.129,0.0955,0.214,0.171,0.187,-0.0205,-0.2755,-0.161
0.0515,-0.134,-0.185,0.0415,0.118,-0.1595,-0.017,0.125,0.093,0.21,0.1675,0.1805,-0.022,-0.2825,-0.169
0.053,-0.1385,-0.1915,0.0425,0.1225,-0.165,-0.017,0.123,0.0935,0.209,0.1655,0.178,-0.022,-0.2955,-0.172
0.0565,-0.132,-0.189,0.0375,0.123,-0.1605,-0.017,0.121,0.093,0.2085,0.1645,0.179,-0.018,-0.284,-0.1715
0.056,-0.132,-0.1885,0.038,0.1225,-0.1605,-0.0155,0.1235,0.0945,0.209,0.1645,0.1775,-0.019,-0.286,-0.1775
0.062,-0.125,-0.187,0.0315,0.124,-0.156,-0.009,0.128,0.0985,0.2165,0.169,0.1805,-0.0195,-0.3,-0.1825
0.062,-0.119,-0.181,0.0285,0.1215,-0.15,-0.01,0.1285,0.1,0.219,0.1705,0.182,-0.018,-0.298,-0.1885
0.062,-0.117,-0.179,0.0275,0.1205,-0.148,-0.0105,0.1255,0.0985,0.217,0.169,0.1815,-0.021,-0.292,-0.199
0.073,-0.106,-0.1785,0.0165,0.126,-0.1425,-0.0095,0.1285,0.0985,0.2175,0.1705,0.183,-0.0205,-0.294,-0.203
0.085,-0.0985,-0.1835,0.0065,0.1345,-0.141,-0.012,0.129,0.0955,0.215,0.166,0.1795,-0.0205,-0.29,-0.1905
0.092,-0.0955,-0.1875,0.002,0.14,-0.1415,-0.01,0.132,0.0935,0.2155,0.1665,0.1805,-0.0205,-0.2865,-0.1855
0.082,-0.1035,-0.1855,0.011,0.134,-0.1445,-0.011,0.13,0.0895,0.215,0.166,0.1785,-0.019,-0.29,-0.1885
0.0685,-0.1185,-0.187,0.025,0.1275,-0.1525,-0.0165,0.1205,0.081,0.2085,0.158,0.1735,-0.0205,-0.2895,-0.181
0.0765,-0.111,-0.1875,0.0175,0.132,-0.1495,-0.015,0.125,0.082,0.208,0.1575,0.1775,-0.02,-0.2875,-0.172
0.0765,-0.1075,-0.1835,0.0155,0.13,-0.1455,-0.0155,0.122,0.077,0.206,0.156,0.174,-0.0225,-0.2765,-0.1705
0.074,-0.1055,-0.1795,0.0155,0.127,-0.1425,-0.015,0.1175,0.073,0.2045,0.1555,0.173,-0.0245,-0.281,-0.1685
0.085,-0.0975,-0.182,0.0065,0.1335,-0.14,-0.014,0.1205,0.0735,0.206,0.1585,0.176,-0.025,-0.2895,-0.1605
0.08,-0.101,-0.1815,0.0105,0.131,-0.141,-0.018,0.117,0.0685,0.205,0.158,0.176,-0.023,-0.276,-0.1535
0.069,-0.1145,-0.183,0.023,0.126,-0.149,-0.023,0.1135,0.066,0.203,0.158,0.1755,-0.0195,-0.2705,-0.159
0.0655,-0.1225,-0.188,0.0285,0.127,-0.1555,-0.022,0.1155,0.068,0.204,0.1605,0.175,-0.0185,-0.2705,-0.164
0.075,-0.1135,-0.1885,0.0195,0.132,-0.151,-0.018,0.1195,0.074,0.2125,0.1655,0.181,-0.0175,-0.2735,-0.1645
0.0795,-0.113,-0.193,0.0165,0.136,-0.153,-0.015,0.1225,0.0785,0.218,0.17,0.1835,-0.0185,-0.277,-0.1675
0.0745,-0.116,-0.191,0.0205,0.1325,-0.1535,-0.0115,0.1265,0.0775,0.2165,0.1695,0.182,-0.0195,-0.2765,-0.165
0.0875,-0.104,-0.191,0.008,0.1395,-0.1475,-0.011,0.1275,0.077,0.2155,0.168,0.182,-0.0195,-0.277,-0.1625
0.0865,-0.1065,-0.193,0.01,0.1395,-0.1495,-0.0135,0.126,0.0775,0.216,0.1685,0.181,-0.0175,-0.287,-0.165
0.076,-0.1155,-0.1915,0.02,0.134,-0.154,-0.0145,0.127,0.079,0.2165,0.168,0.1795,-0.015,-0.2845,-0.1775
0.082,-0.111,-0.1925,0.0145,0.137,-0.1515,-0.012,0.13,0.0835,0.217,0.1645,0.182,-0.0145,-0.274,-0.177
0.0765,-0.111,-0.1875,0.017,0.132,-0.149,-0.0105,0.13,0.0855,0.2175,0.153,0.186,-0.014,-0.273,-0.17
0.0705,-0.113,-0.183,0.021,0.127,-0.148,-0.012,0.1285,0.0835,0.2125,0.143,0.1825,-0.0165,-0.278,-0.171
0.0725,-0.1065,-0.179,0.017,0.126,-0.143,-0.015,0.1255,0.0795,0.207,0.144,0.1795,-0.018,-0.284,-0.173
0.0705,-0.1035,-0.1745,0.0165,0.123,-0.139,-0.019,0.123,0.0785,0.2065,0.148,0.1795,-0.016,-0.2825,-0.1795
0.07,-0.1025,-0.172,0.0165,0.121,-0.1375,-0.019,0.1205,0.0785,0.2085,0.153,0.1785,-0.0155,-0.2805,-0.1805
0.0705,-0.1005,-0.171,0.015,0.1205,-0.1355,-0.0185,0.121,0.08,0.208,0.1605,0.1785,-0.015,-0.2805,-0.179
0.069,-0.1045,-0.1735,0.018,0.121,-0.139,-0.017,0.124,0.082,0.208,0.168,0.183,-0.0155,-0.28,-0.179
0.0785,-0.1,-0.1785,0.0105,0.1285,-0.1395,-0.0155,0.123,0.0805,0.209,0.1705,0.1855,-0.016,-0.2795,-0.1775
0.0865,-0.0905,-0.177,0.0025,0.1315,-0.134,-0.0155,0.122,0.081,0.208,0.172,0.1835,-0.0185,-0.2745,-0.172
0.078,-0.0995,-0.1775,0.0105,0.128,-0.1385,-0.0165,0.118,0.0775,0.2045,0.169,0.1795,-0.0215,-0.2715,-0.165
0.061,-0.122,-0.183,0.0305,0.122,-0.1525,-0.023,0.1105,0.069,0.198,0.1605,0.1755,-0.0185,-0.271,-0.165
0.0535,-0.1315,-0.185,0.039,0.1195,-0.1585,-0.022,0.1115,0.069,0.196,0.1605,0.174,-0.019,-0.269,-0.165
0.0635,-0.1265,-0.19,0.0315,0.1265,-0.158,-0.016,0.12,0.075,0.2035,0.165,0.179,-0.0215,-0.282,-0.175
0.069,-0.118,-0.187,0.0245,0.128,-0.1525,-0.0115,0.126,0.079,0.211,0.17,0.1845,-0.0225,-0.2905,-0.186
0.069,-0.117,-0.1865,0.024,0.1275,-0.1515,-0.005,0.132,0.0795,0.213,0.1735,0.186,-0.0245,-0.303,-0.1895
0.071,-0.123,-0.1945,0.026,0.133,-0.159,-0.003,0.135,0.0785,0.213,0.1725,0.187,-0.0225,-0.3135,-0.187
0.0755,-0.123,-0.1985,0.0235,0.137,-0.161,-0.006,0.1295,0.0745,0.208,0.1665,0.184,-0.0205,-0.3025,-0.182
0.072,-0.1245,-0.197,0.026,0.1345,-0.161,-0.007,0.1315,0.072,0.2075,0.1615,0.1815,-0.0245,-0.294,-0.186
0.0665,-0.127,-0.1935,0.03,0.13,-0.16,-0.008,0.1325,0.072,0.2095,0.162,0.1835,-0.0245,-0.2935,-0.179
0.0795,-0.1205,-0.2,0.0205,0.14,-0.16,-0.0115,0.1295,0.0705,0.2105,0.16,0.183,-0.0225,-0.2885,-0.1735
0.0825,-0.115,-0.1975,0.0165,0.14,-0.156,-0.012,0.1275,0.0715,0.212,0.161,0.1825,-0.0215,-0.2915,-0.182
0.0735,-0.1145,-0.1885,0.0205,0.131,-0.1515,-0.012,0.126,0.0705,0.2075,0.164,0.181,-0.0225,-0.3025,-0.1835
0.08,-0.108,-0.188,0.014,0.134,-0.148,-0.014,0.1245,0.069,0.204,0.163,0.18,-0.0225,-0.2895,-0.1845
0.079,-0.104,-0.183,0.0125,0.131,-0.1435,-0.0125,0.1235,0.0705,0.205,0.161,0.179,-0.0235,-0.276,-0.1785
0.077,-0.102,-0.179,0.0125,0.128,-0.1405,-0.0105,0.1255,0.07,0.2045,0.1575,0.178,-0.026,-0.279,-0.1725
0.0955,-0.0845,-0.18,-0.0055,0.1375,-0.1325,-0.0075,0.13,0.0745,0.2095,0.1605,0.185,-0.0225,-0.28,-0.18
0.0995,-0.077,-0.1765,-0.0115,0.1385,-0.1265,-0.002,0.134,0.08,0.2165,0.167,0.1885,-0.023,-0.2805,-0.1835
0.081,-0.095,-0.176,0.007,0.1285,-0.1355,-0.009,0.129,0.074,0.2115,0.1635,0.184,-0.0215,-0.284,-0.1805
0.0595,-0.1195,-0.1785,0.03,0.119,-0.149,-0.0195,0.119,0.065,0.2015,0.1545,0.177,-0.0195,-0.287,-0.1775
0.0445,-0.1345,-0.179,0.045,0.1115,-0.1565,-0.0195,0.116,0.06,0.1975,0.1505,0.174,-0.022,-0.285,-0.18
0.044,-0.131,-0.1745,0.0435,0.109,-0.1525,-0.0155,0.1205,0.064,0.202,0.1555,0.1795,-0.021,-0.283,-0.1835
0.0505,-0.1275,-0.1775,0.0385,0.114,-0.1525,-0.016,0.121,0.065,0.202,0.159,0.1805,-0.0185,-0.2815,-0.18
0.0625,-0.1295,-0.192,0.0335,0.1275,-0.161,-0.0165,0.1185,0.0645,0.204,0.1615,0.182,-0.0165,-0.2755,-0.1745
0.063,-0.1285,-0.192,0.033,0.1275,-0.1605,-0.0145,0.121,0.0675,0.2085,0.166,0.188,-0.015,-0.279,-0.178
0.0535,-0.1355,-0.1885,0.041,0.121,-0.162,-0.015,0.121,0.064,0.2075,0.168,0.1875,-0.015,-0.284,-0.1745
0.0535,-0.139,-0.1925,0.043,0.123,-0.166,-0.0115,0.124,0.067,0.212,0.1705,0.189,-0.0145,-0.2965,-0.177
0.062,-0.1325,-0.1945,0.035,0.1285,-0.1635,-0.0125,0.1215,0.069,0.2125,0.1695,0.188,-0.015,-0.297,-0.189
0.0685,-0.1275,-0.1955,0.0295,0.132,-0.1615,-0.0125,0.1215,0.069,0.21,0.17,0.1865,-0.017,-0.289,-0.18
0.066,-0.1245,-0.1905,0.0295,0.128,-0.1575,-0.0065,0.1235,0.0705,0.211,0.1715,0.1885,-0.019,-0.2935,-0.1815
0.0635,-0.124,-0.1875,0.0305,0.1255,-0.1555,-0.0085,0.1225,0.067,0.209,0.168,0.1865,-0.0185,-0.293,-0.1865
0.0495,-0.1315,-0.1815,0.041,0.1155,-0.1565,-0.009,0.122,0.067,0.207,0.165,0.1845,-0.0195,-0.296,-0.187
0.039,-0.134,-0.173,0.0475,0.106,-0.1535,-0.011,0.121,0.067,0.2075,0.1635,0.1845,-0.0185,-0.2865,-0.19
0.038,-0.13,-0.168,0.046,0.103,-0.149,-0.0125,0.1215,0.0655,0.2085,0.164,0.183,-0.017,-0.286,-0.1935
0.0415,-0.13,-0.1715,0.044,0.1065,-0.1505,-0.0145,0.1155,0.0615,0.2015,0.1575,0.177,-0.017,-0.291,-0.1955
0.047,-0.1305,-0.1775,0.0415,0.112,-0.154,-0.019,0.1125,0.057,0.198,0.154,0.1735,-0.017,-0.2875,-0.1865
0.052,-0.1225,-0.174,0.0355,0.113,-0.1485,-0.015,0.1175,0.061,0.202,0.1585,0.178,-0.017,-0.2845,-0.182
0.057,-0.1195,-0.177,0.031,0.117,-0.1485,-0.0125,0.12,0.0645,0.204,0.1585,0.18,-0.0175,-0.285,-0.1845
0.056,-0.1235,-0.1795,0.0335,0.1175,-0.1515,-0.015,0.118,0.0635,0.2035,0.156,0.1775,-0.019,-0.291,-0.1855
0.068,-0.119,-0.1875,0.0255,0.128,-0.153,-0.018,0.117,0.0605,0.2015,0.1555,0.175,-0.02,-0.283,-0.1825
0.08,-0.1155,-0.196,0.018,0.1375,-0.1555,-0.0205,0.1145,0.062,0.203,0.157,0.1745,-0.0195,-0.271,-0.1775
0.086,-0.1085,-0.1945,0.011,0.14,-0.1515,-0.018,0.119,0.068,0.2085,0.159,0.179,-0.0185,-0.273,-0.1825
0.0845,-0.11,-0.1945,0.013,0.1395,-0.1525,-0.0145,0.122,0.0685,0.2085,0.16,0.181,-0.02,-0.283,-0.181
0.0745,-0.12,-0.1945,0.023,0.1345,-0.1575,-0.015,0.119,0.067,0.207,0.1605,0.1805,-0.02,-0.2895,-0.1745
0.073,-0.1195,-0.1925,0.0235,0.1325,-0.156,-0.012,0.123,0.071,0.2115,0.1645,0.1835,-0.02,-0.296,-0.18
0.065,-0.127,-0.192,0.031,0.1285,-0.1595,-0.01,0.127,0.075,0.2115,0.165,0.1815,-0.022,-0.2975,-0.187
0.0505,-0.146,-0.197,0.0475,0.124,-0.1715,-0.011,0.126,0.074,0.2085,0.1625,0.178,-0.024,-0.298,-0.181
0.051,-0.1485,-0.1995,0.0485,0.125,-0.174,-0.0145,0.1235,0.0725,0.207,0.162,0.1765,-0.0225,-0.301,-0.178
0.053,-0.151,-0.2035,0.049,0.1285,-0.1775,-0.019,0.121,0.07,0.204,0.1585,0.175,-0.021,-0.3005,-0.1835
0.047,-0.154,-0.201,0.0535,0.124,-0.1775,-0.0165,0.1215,0.0715,0.2075,0.16,0.176,-0.022,-0.3015,-0.183
0.0495,-0.1475,-0.197,0.049,0.1235,-0.172,-0.014,0.1245,0.0735,0.2105,0.163,0.18,-0.0195,-0.3055,-0.185
0.0575,-0.1395,-0.197,0.0405,0.127,-0.168,-0.012,0.1265,0.0775,0.212,0.1655,0.183,-0.019,-0.3,-0.1885
0.066,-0.1235,-0.1895,0.029,0.1275,-0.1565,-0.0075,0.129,0.081,0.216,0.1695,0.1845,-0.021,-0.295,-0.185
0.0805,-0.1055,-0.186,0.0125,0.1335,-0.146,-0.005,0.1325,0.0825,0.2175,0.1715,0.1885,-0.0205,-0.2955,-0.185
0.081,-0.1,-0.181,0.0095,0.131,-0.1405,-0.005,0.1285,0.0805,0.216,0.1685,0.1855,-0.023,-0.288,-0.1925
0.076,-0.1065,-0.183,0.015,0.1295,-0.1445,-0.009,0.1225,0.075,0.2105,0.1645,0.1805,-0.0235,-0.2855,-0.194
0.0755,-0.1115,-0.1875,0.018,0.1315,-0.1495,-0.0145,0.1195,0.0695,0.2065,0.1635,0.178,-0.0225,-0.286,-0.1955
0.0715,-0.1175,-0.1895,0.023,0.1305,-0.1535,-0.016,0.1185,0.069,0.2065,0.161,0.1745,-0.023,-0.284,-0.184
0.071,-0.119,-0.19,0.024,0.1305,-0.1545,-0.0175,0.119,0.071,0.2045,0.1585,0.174,-0.023,-0.282,-0.1755
0.059,-0.1235,-0.183,0.0325,0.121,-0.1535,-0.02,0.115,0.0635,0.199,0.153,0.1715,-0.0235,-0.286,-0.1765
0.059,-0.124,-0.183,0.0325,0.121,-0.1535,-0.0215,0.1135,0.062,0.1995,0.153,0.173,-0.023,-0.288,-0.174
0.0695,-0.118,-0.1875,0.0245,0.1285,-0.153,-0.019,0.1165,0.0645,0.203,0.159,0.1785,-0.0205,-0.2795,-0.1755
0.085,-0.1075,-0.193,0.011,0.139,-0.15,-0.015,0.121,0.0675,0.208,0.164,0.1845,-0.0185,-0.2775,-0.166
0.0995,-0.097,-0.1965,-0.0015,0.148,-0.1465,-0.0065,0.1295,0.0765,0.2165,0.173,0.194,-0.017,-0.286,-0.1665
0.092,-0.107,-0.199,0.0075,0.1455,-0.153,-0.0065,0.1295,0.077,0.2155,0.1725,0.192,-0.019,-0.302,-0.1765
0.0835,-0.123,-0.2065,0.02,0.145,-0.1645,-0.0145,0.122,0.0665,0.206,0.162,0.1825,-0.0205,-0.3045,-0.1705
0.0875,-0.121,-0.2085,0.017,0.148,-0.165,-0.014,0.125,0.068,0.2095,0.1655,0.188,-0.0165,-0.2925,-0.175
0.1165,-0.09,-0.206,-0.0135,0.1615,-0.148,-0.002,0.1375,0.083,0.2235,0.1805,0.201,-0.015,-0.2875,-0.186
0.13,-0.0765,-0.2065,-0.027,0.1685,-0.1415,0.0065,0.1405,0.088,0.228,0.1845,0.206,-0.0165,-0.2925,-0.1825
0.091,-0.1115,-0.2025,0.0105,0.1465,-0.157,-0.003,0.132,0.078,0.22,0.1765,0.1975,-0.0175,-0.2935,-0.1825
0.0605,-0.1325,-0.193,0.036,0.1265,-0.1625,-0.008,0.127,0.0745,0.214,0.171,0.191,-0.0185,-0.2865,-0.1865
0.062,-0.1315,-0.1935,0.0345,0.1275,-0.1625,-0.0095,0.1245,0.0735,0.212,0.17,0.1905,-0.019,-0.2985,-0.196
0.0645,-0.1275,-0.192,0.0315,0.1285,-0.1595,-0.0115,0.122,0.0685,0.21,0.1675,0.189,-0.0205,-0.304,-0.196
0.066,-0.1175,-0.1835,0.026,0.125,-0.151,-0.01,0.1225,0.0695,0.2105,0.1675,0.1885,-0.021,-0.293,-0.188
0.0585,-0.1265,-0.1845,0.034,0.1215,-0.1555,-0.0185,0.1165,0.064,0.205,0.1615,0.1815,-0.0215,-0.2845,-0.1885
0.0495,-0.14,-0.1895,0.0455,0.1195,-0.165,-0.0255,0.1095,0.058,0.2005,0.155,0.175,-0.0215,-0.2835,-0.188
0.046,-0.145,-0.1905,0.0495,0.1185,-0.168,-0.0275,0.1095,0.057,0.2,0.1515,0.171,-0.022,-0.284,-0.1815
0.0525,-0.1335,-0.1855,0.0405,0.119,-0.1595,-0.02,0.1175,0.061,0.203,0.157,0.179,-0.0225,-0.2795,-0.176
0.0645,-0.1165,-0.181,0.026,0.123,-0.149,-0.0145,0.119,0.061,0.2025,0.161,0.183,-0.026,-0.2785,-0.1775
0.06,-0.12,-0.18,0.03,0.12,-0.15,-0.018,0.1125,0.0565,0.196,0.1565,0.1765,-0.0295,-0.275,-0.171
0.058,-0.125,-0.183,0.0335,0.1205,-0.154,-0.0215,0.1115,0.058,0.199,0.156,0.176,-0.0275,-0.2775,-0.165
0.0655,-0.1225,-0.1875,0.0285,0.1265,-0.155,-0.025,0.1115,0.0585,0.1995,0.1545,0.174,-0.025,-0.2745,-0.1635
0.062,-0.126,-0.188,0.032,0.125,-0.157,-0.023,0.114,0.06,0.2,0.1535,0.1745,-0.025,-0.275,-0.1605
0.0605,-0.1305,-0.191,0.035,0.1255,-0.1605,-0.021,0.116,0.0605,0.203,0.154,0.1765,-0.0265,-0.2825,-0.1615
0.06,-0.1365,-0.1965,0.038,0.128,-0.1665,-0.019,0.118,0.06,0.2035,0.1565,0.1765,-0.027,-0.2845,-0.162
0.053,-0.1465,-0.1995,0.0465,0.126,-0.173,-0.019,0.116,0.059,0.2005,0.154,0.1735,-0.029,-0.2885,-0.1585
0.0525,-0.1515,-0.204,0.0495,0.1285,-0.178,-0.0205,0.1125,0.0555,0.198,0.152,0.173,-0.0295,-0.289,-0.1625
0.05,-0.1545,-0.2045,0.0525,0.127,-0.1795,-0.019,0.116,0.0575,0.1995,0.154,0.1755,-0.028,-0.288,-0.167
0.052,-0.1485,-0.2005,0.048,0.126,-0.1745,-0.019,0.115,0.0605,0.2015,0.156,0.177,-0.028,-0.289,-0.171
0.0625,-0.1445,-0.207,0.041,0.135,-0.176,-0.0205,0.1125,0.0605,0.2005,0.156,0.1775,-0.0255,-0.287,-0.1755
0.061,-0.1515,-0.2125,0.045,0.137,-0.182,-0.0265,0.111,0.0575,0.197,0.151,0.174,-0.024,-0.2935,-0.1785
0.0585,-0.1495,-0.2075,0.0455,0.133,-0.1785,-0.0265,0.1125,0.055,0.1985,0.1535,0.174,-0.0235,-0.305,-0.185
0.057,-0.1455,-0.2025,0.0445,0.13,-0.1745,-0.0235,0.115,0.0555,0.1965,0.153,0.174,-0.024,-0.3055,-0.1815
0.058,-0.14,-0.1975,0.041,0.1275,-0.1685,-0.024,0.115,0.0555,0.1975,0.152,0.1715,-0.026,-0.296,-0.1765
0.0645,-0.1285,-0.193,0.032,0.129,-0.161,-0.024,0.114,0.057,0.201,0.155,0.1725,-0.0265,-0.278,-0.17
0.07,-0.122,-0.192,0.026,0.131,-0.157,-0.026,0.1125,0.0565,0.2,0.154,0.171,-0.0265,-0.2785,-0.172
0.068,-0.1215,-0.19,0.027,0.129,-0.1555,-0.025,0.1125,0.058,0.201,0.154,0.171,-0.026,-0.287,-0.186
0.0695,-0.121,-0.191,0.026,0.13,-0.156,-0.023,0.1145,0.06,0.2015,0.154,0.1745,-0.024,-0.2915,-0.1845
0.0735,-0.119,-0.1925,0.0225,0.133,-0.1555,-0.0245,0.116,0.0585,0.201,0.153,0.175,-0.0235,-0.2795,-0.1635
0.071,-0.1195,-0.191,0.0245,0.131,-0.155,-0.0245,0.117,0.0595,0.2,0.1505,0.1755,-0.0235,-0.2635,-0.1505
0.069,-0.122,-0.1915,0.0265,0.1305,-0.157,-0.023,0.1185,0.0595,0.1995,0.1515,0.1755,-0.0245,-0.2665,-0.1635
0.068,-0.1265,-0.195,0.0295,0.1315,-0.161,-0.0255,0.115,0.0595,0.1975,0.145,0.1715,-0.0255,-0.275,-0.167
0.0705,-0.1315,-0.2015,0.0305,0.136,-0.1665,-0.027,0.1135,0.0625,0.198,0.132,0.17,-0.026,-0.285,-0.156
0.07,-0.1315,-0.202,0.031,0.136,-0.1665,-0.026,0.1155,0.0655,0.202,0.133,0.173,-0.025,-0.2825,-0.159
0.0575,-0.141,-0.199,0.0415,0.128,-0.17,-0.026,0.116,0.068,0.2025,0.1395,0.1745,-0.025,-0.2875,-0.1705
0.047,-0.152,-0.1995,0.0525,0.123,-0.1755,-0.025,0.117,0.067,0.2,0.144,0.175,-0.026,-0.298,-0.166
0.0445,-0.1525,-0.197,0.054,0.121,-0.175,-0.025,0.1175,0.069,0.2,0.1495,0.1755,-0.023,-0.293,-0.165
0.0465,-0.1525,-0.199,0.053,0.1225,-0.176,-0.0245,0.1185,0.0715,0.2015,0.159,0.177,-0.0215,-0.288,-0.1745
0.05,-0.1495,-0.2,0.05,0.125,-0.175,-0.022,0.12,0.0725,0.2015,0.1645,0.1775,-0.021,-0.2915,-0.182
0.0535,-0.1475,-0.201,0.0465,0.1275,-0.174,-0.0215,0.1205,0.0765,0.2035,0.167,0.179,-0.0195,-0.2935,-0.1855
0.0575,-0.148,-0.2055,0.045,0.1315,-0.177,-0.0225,0.1205,0.076,0.205,0.169,0.18,-0.0175,-0.3005,-0.1845
0.0625,-0.1435,-0.2055,0.0405,0.134,-0.1745,-0.0205,0.123,0.0775,0.2065,0.1665,0.181,-0.0185,-0.3085,-0.1865
0.077,-0.126,-0.203,0.0245,0.14,-0.1645,-0.017,0.1275,0.0815,0.211,0.171,0.185,-0.0195,-0.3005,-0.184
0.0765,-0.117,-0.194,0.0205,0.135,-0.1555,-0.0205,0.123,0.0785,0.2095,0.171,0.1845,-0.018,-0.2905,-0.1885
0.056,-0.133,-0.1885,0.0385,0.122,-0.161,-0.029,0.114,0.0705,0.202,0.1615,0.1775,-0.02,-0.2745,-0.183
0.0365,-0.154,-0.1905,0.059,0.1135,-0.1725,-0.037,0.1055,0.0615,0.1945,0.1525,0.17,-0.0205,-0.282,-0.18
0.037,-0.1525,-0.1895,0.058,0.113,-0.171,-0.0365,0.1055,0.061,0.1935,0.1515,0.1715,-0.0195,-0.292,-0.1855
0.0595,-0.133,-0.192,0.0365,0.1255,-0.1625,-0.0295,0.1125,0.067,0.1985,0.157,0.1785,-0.0175,-0.279,-0.176
0.0725,-0.121,-0.1935,0.024,0.133,-0.157,-0.027,0.115,0.07,0.1995,0.159,0.1815,-0.016,-0.275,-0.167
0.0715,-0.116,-0.1875,0.022,0.1295,-0.152,-0.025,0.1155,0.072,0.1995,0.1585,0.181,-0.0175,-0.2765,-0.165
0.074,-0.1135,-0.1875,0.0195,0.131,-0.1505,-0.021,0.117,0.075,0.202,0.16,0.183,-0.019,-0.287,-0.168
0.0825,-0.111,-0.1935,0.0145,0.138,-0.152,-0.0185,0.118,0.079,0.2035,0.161,0.1855,-0.019,-0.284,-0.1675
0.0745,-0.122,-0.197,0.024,0.1355,-0.1595,-0.022,0.1165,0.076,0.2025,0.157,0.1825,-0.0195,-0.2795,-0.1665
0.066,-0.136,-0.202,0.035,0.134,-0.169,-0.0235,0.117,0.073,0.202,0.153,0.1795,-0.022,-0.2855,-0.1675
0.0695,-0.134,-0.203,0.032,0.1365,-0.1685,-0.0205,0.1205,0.0755,0.2055,0.156,0.183,-0.0225,-0.2815,-0.17
0.065,-0.14,-0.205,0.0375,0.1355,-0.173,-0.0195,0.1205,0.073,0.199,0.1575,0.184,-0.023,-0.2875,-0.166
0.05,-0.1595,-0.2095,0.055,0.1295,-0.1845,-0.022,0.1165,0.0685,0.1915,0.152,0.178,-0.0235,-0.301,-0.162
0.037,-0.175,-0.212,0.069,0.1245,-0.1935,-0.0255,0.114,0.064,0.194,0.147,0.17,-0.0245,-0.307,-0.17
0.049,-0.1705,-0.2195,0.0605,0.1345,-0.195,-0.025,0.1155,0.0665,0.198,0.151,0.168,-0.0265,-0.305,-0.17
0.054,-0.1615,-0.2155,0.054,0.135,-0.1885,-0.0215,0.1205,0.0675,0.2015,0.154,0.17,-0.0275,-0.297,-0.1705
0.046,-0.1655,-0.2115,0.06,0.1285,-0.1885,-0.022,0.119,0.0635,0.1985,0.153,0.1685,-0.029,-0.303,-0.1745
0.045,-0.168,-0.2125,0.0615,0.1285,-0.19,-0.026,0.1135,0.062,0.196,0.1515,0.1675,-0.0295,-0.309,-0.18
0.0425,-0.1685,-0.211,0.063,0.1265,-0.19,-0.029,0.111,0.0605,0.194,0.148,0.167,-0.0295,-0.306,-0.1915
0.0355,-0.1655,-0.201,0.065,0.1185,-0.1835,-0.026,0.114,0.062,0.1945,0.149,0.17,-0.029,-0.3005,-0.194
0.0335,-0.1595,-0.193,0.063,0.113,-0.176,-0.024,0.1145,0.0625,0.196,0.15,0.1715,-0.0305,-0.293,-0.188
0.053,-0.1395,-0.1925,0.043,0.1225,-0.166,-0.0205,0.1205,0.0665,0.2,0.156,0.176,-0.0305,-0.2905,-0.179
0.051,-0.1355,-0.1865,0.042,0.1185,-0.161,-0.016,0.124,0.07,0.2035,0.16,0.1795,-0.0285,-0.2855,-0.168
0.0465,-0.147,-0.193,0.05,0.12,-0.17,-0.0235,0.1125,0.063,0.1975,0.1545,0.174,-0.0275,-0.284,-0.1675
0.0465,-0.151,-0.1975,0.0525,0.122,-0.1745,-0.03,0.1075,0.0535,0.194,0.1535,0.1695,-0.0265,-0.2765,-0.17
0.035,-0.16,-0.195,0.0625,0.115,-0.1775,-0.0325,0.107,0.0525,0.1955,0.1505,0.1695,-0.0235,-0.265,-0.169
0.0505,-0.1495,-0.2,0.0495,0.1255,-0.1745,-0.0305,0.1105,0.054,0.194,0.1485,0.1715,-0.024,-0.2685,-0.17
0.0565,-0.1435,-0.2,0.0435,0.1285,-0.1715,-0.03,0.1095,0.049,0.1885,0.147,0.171,-0.025,-0.276,-0.1635
0.0495,-0.1475,-0.197,0.049,0.123,-0.1725,-0.0295,0.109,0.0515,0.188,0.1475,0.171,-0.024,-0.279,-0.1575
0.0545,-0.148,-0.2025,0.047,0.1285,-0.175,-0.027,0.1125,0.0585,0.1925,0.15,0.174,-0.0235,-0.278,-0.155
0.052,-0.149,-0.201,0.048,0.1265,-0.1745,-0.024,0.1135,0.061,0.194,0.1515,0.1745,-0.0255,-0.283,-0.159
0.0505,-0.1515,-0.202,0.0505,0.126,-0.177,-0.022,0.116,0.061,0.1955,0.1525,0.1735,-0.026,-0.2925,-0.1625
0.057,-0.1545,-0.2115,0.049,0.1345,-0.183,-0.0255,0.114,0.0575,0.194,0.1495,0.171,-0.026,-0.2915,-0.163
0.056,-0.1545,-0.2105,0.049,0.133,-0.1825,-0.0255,0.114,0.058,0.1945,0.149,0.1705,-0.0265,-0.3035,-0.181
0.0515,-0.162,-0.213,0.055,0.1325,-0.1875,-0.0235,0.1185,0.0615,0.196,0.1515,0.1735,-0.0235,-0.3195,-0.187
0.048,-0.16,-0.208,0.056,0.128,-0.184,-0.0205,0.122,0.065,0.1975,0.1535,0.176,-0.0215,-0.3125,-0.182
0.0455,-0.151,-0.1965,0.0525,0.1215,-0.1735,-0.0185,0.12,0.0675,0.2015,0.1545,0.1775,-0.023,-0.303,-0.1885
0.0375,-0.155,-0.1925,0.059,0.115,-0.174,-0.022,0.1165,0.066,0.2,0.1525,0.177,-0.0225,-0.297,-0.1875
0.028,-0.1685,-0.1965,0.07,0.112,-0.1825,-0.029,0.111,0.06,0.1925,0.1465,0.1725,-0.021,-0.2995,-0.184
0.0415,-0.1585,-0.2,0.0585,0.121,-0.1795,-0.03,0.1095,0.058,0.192,0.146,0.173,-0.0215,-0.2885,-0.185
0.059,-0.1385,-0.1975,0.04,0.1285,-0.168,-0.0265,0.1115,0.0605,0.1945,0.1485,0.1775,-0.023,-0.284,-0.181
0.0645,-0.1265,-0.191,0.031,0.128,-0.159,-0.0245,0.114,0.062,0.1965,0.148,0.178,-0.025,-0.288,-0.179
0.0725,-0.113,-0.1855,0.0205,0.129,-0.1495,-0.0165,0.121,0.067,0.201,0.1545,0.1835,-0.0275,-0.2805,-0.172
0.0675,-0.118,-0.1855,0.025,0.1265,-0.1515,-0.017,0.1205,0.069,0.2025,0.158,0.185,-0.0285,-0.284,-0.1645
0.0615,-0.12,-0.1815,0.0295,0.1215,-0.1505,-0.019,0.1185,0.0655,0.2025,0.1565,0.1845,-0.0275,-0.2765,-0.166
0.058,-0.125,-0.183,0.0335,0.1205,-0.154,-0.019,0.1155,0.06,0.1975,0.152,0.18,-0.03,-0.274,-0.1655
0.057,-0.133,-0.19,0.038,0.1235,-0.1615,-0.0235,0.113,0.054,0.1955,0.1495,0.176,-0.032,-0.2745,-0.1655
0.068,-0.126,-0.194,0.029,0.1305,-0.16,-0.0195,0.118,0.0555,0.199,0.154,0.1785,-0.032,-0.2765,-0.1665
0.0715,-0.12,-0.192,0.024,0.1315,-0.156,-0.0135,0.122,0.0615,0.204,0.159,0.182,-0.0335,-0.2815,-0.163
0.076,-0.115,-0.191,0.0195,0.1335,-0.153,-0.0085,0.1285,0.0675,0.2095,0.1635,0.191,-0.0325,-0.2745,-0.155
0.085,-0.112,-0.1965,0.0135,0.141,-0.154,-0.0055,0.132,0.068,0.2105,0.1655,0.1925,-0.033,-0.2755,-0.155
0.0945,-0.1085,-0.203,0.007,0.1485,-0.1555,-0.0045,0.1325,0.0685,0.212,0.1665,0.193,-0.031,-0.283,-0.165
0.1005,-0.104,-0.205,0.0015,0.153,-0.154,-0.0035,0.1345,0.072,0.214,0.169,0.1955,-0.0295,-0.2835,-0.1625
0.101,-0.102,-0.203,0.0,0.152,-0.1525,-0.006,0.135,0.07,0.2145,0.1685,0.1945,-0.028,-0.2875,-0.1665
0.091,-0.115,-0.2055,0.012,0.148,-0.16,-0.004,0.136,0.071,0.2145,0.1685,0.1955,-0.0255,-0.3045,-0.181
0.077,-0.1245,-0.2015,0.024,0.1395,-0.163,-0.006,0.1375,0.0715,0.2155,0.169,0.1945,-0.0245,-0.3015,-0.1795
0.0675,-0.129,-0.1965,0.0305,0.132,-0.163,-0.012,0.1325,0.068,0.213,0.167,0.191,-0.023,-0.2985,-0.1865
0.0535,-0.1395,-0.193,0.043,0.1235,-0.1665,-0.014,0.127,0.0675,0.213,0.165,0.1875,-0.0245,-0.3045,-0.1945
0.0495,-0.1415,-0.191,0.046,0.1205,-0.166,-0.019,0.123,0.0635,0.21,0.163,0.1865,-0.025,-0.2985,-0.19
0.0535,-0.1375,-0.191,0.042,0.1225,-0.1645,-0.0205,0.1185,0.0605,0.2065,0.1595,0.185,-0.0245,-0.291,-0.1925
0.0495,-0.1425,-0.1915,0.0465,0.1205,-0.167,-0.028,0.1105,0.0565,0.2,0.1525,0.179,-0.0245,-0.285,-0.194
0.0525,-0.144,-0.197,0.0455,0.125,-0.1705,-0.0325,0.107,0.0555,0.196,0.149,0.174,-0.024,-0.287,-0.195
0.065,-0.1305,-0.1955,0.0325,0.1305,-0.163,-0.0265,0.1145,0.0635,0.203,0.153,0.179,-0.024,-0.288,-0.194
0.071,-0.1245,-0.196,0.0265,0.1335,-0.16,-0.0255,0.1175,0.0675,0.205,0.1555,0.183,-0.023,-0.2835,-0.1905
0.0715,-0.12,-0.1915,0.024,0.131,-0.1555,-0.027,0.118,0.0715,0.206,0.158,0.1855,-0.0205,-0.273,-0.187
0.072,-0.112,-0.184,0.02,0.128,-0.148,-0.025,0.1215,0.077,0.208,0.1615,0.1855,-0.021,-0.2655,-0.188
0.077,-0.108,-0.185,0.015,0.131,-0.1465,-0.0225,0.127,0.08,0.211,0.164,0.1855,-0.0225,-0.268,-0.187
0.087,-0.093,-0.18,0.003,0.1335,-0.1365,-0.02,0.135,0.0895,0.2195,0.1715,0.192,-0.0215,-0.264,-0.1905
0.0915,-0.0815,-0.1735,-0.005,0.1325,-0.1275,-0.0155,0.139,0.0975,0.225,0.1775,0.1965,-0.023,-0.255,-0.195
0.088,-0.086,-0.1745,-0.001,0.131,-0.13,-0.012,0.1435,0.1015,0.2295,0.181,0.199,-0.021,-0.25,-0.193
0.091,-0.0865,-0.177,-0.002,0.134,-0.1315,-0.01,0.1505,0.107,0.2355,0.1865,0.2035,-0.017,-0.2505,-0.2
0.0885,-0.089,-0.1775,0.0005,0.133,-0.133,-0.009,0.154,0.109,0.2365,0.1875,0.2035,-0.015,-0.2565,-0.2105
0.077,-0.1005,-0.177,0.0115,0.127,-0.139,-0.0075,0.1575,0.112,0.236,0.186,0.2005,-0.012,-0.2635,-0.223
0.086,-0.0955,-0.1815,0.0045,0.134,-0.1385,-0.0045,0.1615,0.115,0.2375,0.187,0.2005,-0.012,-0.26,-0.2305
0.1005,-0.0845,-0.1855,-0.008,0.143,-0.135,0.0055,0.1705,0.1255,0.2455,0.1965,0.2085,-0.012,-0.2605,-0.2355
0.098,-0.0785,-0.1765,-0.01,0.1375,-0.1275,0.0175,0.1805,0.1385,0.2575,0.2055,0.2175,-0.0095,-0.252,-0.2375
0.096,-0.0695,-0.1655,-0.0135,0.131,-0.1175,0.0245,0.189,0.1465,0.2625,0.2085,0.218,-0.0095,-0.2465,-0.24
0.0955,-0.066,-0.1615,-0.015,0.1285,-0.1135,0.033,0.1975,0.155,0.269,0.2155,0.2215,-0.0065,-0.251,-0.245
0.099,-0.057,-0.156,-0.021,0.1275,-0.107,0.035,0.1975,0.158,0.2735,0.2175,0.2215,-0.0035,-0.2365,-0.2435
0.105,-0.045,-0.1495,-0.03,0.127,-0.0975,0.041,0.202,0.167,0.2775,0.2205,0.223,-0.003,-0.227,-0.256
0.1045,-0.041,-0.1455,-0.032,0.125,-0.093,0.047,0.206,0.171,0.2805,0.2195,0.2235,-0.0035,-0.223,-0.259
0.0985,-0.041,-0.1395,-0.0285,0.119,-0.0905,0.044,0.204,0.168,0.277,0.2155,0.2195,-0.0045,-0.2225,-0.264
0.094,-0.046,-0.14,-0.024,0.117,-0.093,0.0445,0.208,0.1705,0.277,0.2165,0.2235,0.0005,-0.2255,-0.275
0.097,-0.0485,-0.1455,-0.0245,0.1215,-0.097,0.046,0.2115,0.173,0.281,0.219,0.2275,0.0045,-0.234,-0.272
0.1055,-0.046,-0.1515,-0.03,0.1285,-0.099,0.042,0.2075,0.171,0.278,0.219,0.227,0.0085,-0.236,-0.271
0.1075,-0.0465,-0.154,-0.0305,0.131,-0.1005,0.038,0.2035,0.165,0.2725,0.214,0.22,0.0075,-0.23,-0.263
0.103,-0.0545,-0.1575,-0.024,0.13,-0.106,0.0385,0.2055,0.1625,0.274,0.2135,0.219,0.01,-0.2205,-0.2515
0.104,-0.0555,-0.1595,-0.0245,0.132,-0.1075,0.0375,0.2045,0.1635,0.2775,0.2165,0.223,0.015,-0.21,-0.245
0.1085,-0.052,-0.1605,-0.028,0.1345,-0.1065,0.0385,0.2075,0.1645,0.2805,0.2205,0.2255,0.0155,-0.2235,-0.2475
0.115,-0.053,-0.168,-0.031,0.1415,-0.1105,0.0385,0.215,0.1675,0.286,0.22,0.2325,0.022,-0.2395,-0.2485
0.1135,-0.058,-0.1715,-0.028,0.1425,-0.1145,0.0355,0.217,0.1705,0.289,0.212,0.236,0.026,-0.2445,-0.2495
0.122,-0.0615,-0.1835,-0.03,0.1525,-0.1225,0.034,0.2155,0.1675,0.2865,0.21,0.234,0.0275,-0.245,-0.2445
0.1495,-0.041,-0.1905,-0.054,0.17,-0.116,0.0405,0.2225,0.1735,0.293,0.2215,0.241,0.0295,-0.245,-0.233
0.1575,-0.027,-0.1845,-0.065,0.171,-0.1055,0.047,0.2315,0.1795,0.3,0.2335,0.2515,0.0335,-0.2485,-0.2355
0.143,-0.0415,-0.1845,-0.0505,0.1635,-0.113,0.049,0.23,0.176,0.2975,0.235,0.251,0.0345,-0.2585,-0.2365
0.1315,-0.058,-0.1895,-0.0365,0.1605,-0.124,0.048,0.2265,0.1735,0.295,0.239,0.248,0.036,-0.263,-0.2265
0.135,-0.058,-0.193,-0.0385,0.1635,-0.1255,0.047,0.226,0.1705,0.29,0.239,0.2445,0.0375,-0.2595,-0.23
0.137,-0.049,-0.1865,-0.044,0.162,-0.118,0.053,0.228,0.17,0.291,0.24,0.244,0.0315,-0.257,-0.2405
0.139,-0.0405,-0.1795,-0.0495,0.1595,-0.11,0.061,0.229,0.17,0.291,0.242,0.2445,0.025,-0.2515,-0.246
0.147,-0.0265,-0.1735,-0.06,0.16,-0.1,0.0645,0.231,0.171,0.289,0.238,0.2415,0.022,-0.2415,-0.249
0.1515,-0.018,-0.17,-0.0665,0.1605,-0.094,0.0645,0.2325,0.1735,0.289,0.237,0.2385,0.022,-0.239,-0.251
0.1365,-0.031,-0.1675,-0.053,0.152,-0.0995,0.053,0.2255,0.1645,0.282,0.2315,0.2325,0.0225,-0.2375,-0.238
0.129,-0.0405,-0.169,-0.0445,0.149,-0.1045,0.041,0.222,0.158,0.279,0.2265,0.23,0.0265,-0.2295,-0.2225
0.144,-0.0365,-0.18,-0.0535,0.162,-0.108,0.04,0.2255,0.1625,0.2795,0.2235,0.2345,0.031,-0.233,-0.2165
0.144,-0.0405,-0.185,-0.052,0.1645,-0.1125,0.0305,0.223,0.158,0.2745,0.2185,0.2335,0.034,-0.2375,-0.2155
0.141,-0.05,-0.191,-0.0455,0.166,-0.121,0.0245,0.222,0.155,0.2715,0.216,0.2275,0.035,-0.2365,-0.224
0.1415,-0.055,-0.1965,-0.0435,0.169,-0.126,0.0245,0.2245,0.16,0.273,0.215,0.2265,0.036,-0.245,-0.218
0.148,-0.0585,-0.2065,-0.0445,0.177,-0.1325,0.0165,0.2235,0.1595,0.271,0.213,0.2275,0.0405,-0.2525,-0.208
0.1425,-0.0695,-0.2115,-0.0365,0.177,-0.1405,0.017,0.2245,0.1625,0.269,0.2135,0.2285,0.044,-0.2435,-0.208
0.132,-0.0685,-0.2005,-0.032,0.166,-0.1345,0.023,0.2315,0.173,0.2785,0.2215,0.235,0.045,-0.2325,-0.216
0.1455,-0.0625,-0.208,-0.0415,0.1765,-0.1355,0.022,0.238,0.1785,0.285,0.2285,0.244,0.0515,-0.248,-0.213
0.146,-0.0675,-0.2135,-0.0395,0.18,-0.1405,0.013,0.232,0.172,0.2795,0.225,0.243,0.0545,-0.266,-0.205
0.139,-0.076,-0.215,-0.032,0.177,-0.1455,0.0045,0.226,0.1675,0.275,0.2225,0.2395,0.054,-0.263,-0.201
0.1465,-0.0745,-0.2205,-0.036,0.1835,-0.1475,-0.007,0.2265,0.169,0.2755,0.2225,0.241,0.058,-0.2505,-0.1915
0.143,-0.078,-0.221,-0.0325,0.1815,-0.149,-0.0155,0.2225,0.1685,0.2775,0.222,0.2415,0.058,-0.242,-0.191
0.132,-0.091,-0.223,-0.0205,0.1775,-0.157,-0.019,0.2215,0.1695,0.28,0.2205,0.244,0.058,-0.248,-0.197
0.1295,-0.0965,-0.226,-0.0165,0.178,-0.1615,-0.03,0.212,0.163,0.269,0.214,0.238,0.0555,-0.2565,-0.191
0.1245,-0.0995,-0.224,-0.0125,0.1745,-0.162,-0.038,0.1965,0.1515,0.255,0.2095,0.23,0.0455,-0.2705,-0.1925
0.1195,-0.1025,-0.222,-0.0085,0.171,-0.162,-0.053,0.175,0.1395,0.2465,0.2005,0.2245,0.0395,-0.285,-0.196
0.1225,-0.1035,-0.226,-0.0095,0.174,-0.1645,-0.0695,0.148,0.122,0.2345,0.1875,0.217,0.034,-0.2895,-0.183
0.1275,-0.0965,-0.2235,-0.0155,0.1755,-0.16,-0.0745,0.1395,0.1125,0.228,0.184,0.2145,0.0285,-0.2955,-0.1765
0.128,-0.097,-0.225,-0.0155,0.1765,-0.161,-0.0765,0.129,0.102,0.222,0.1795,0.212,0.026,-0.305,-0.1615
0.1175,-0.109,-0.2265,-0.0045,0.172,-0.1675,-0.0735,0.123,0.0925,0.2155,0.173,0.213,0.023,-0.3015,-0.142
0.108,-0.1235,-0.2315,0.008,0.1695,-0.1775,-0.069,0.1205,0.0855,0.2095,0.1695,0.21,0.021,-0.308,-0.1405
0.113,-0.1325,-0.2455,0.0095,0.1795,-0.189,-0.0705,0.109,0.07,0.1945,0.1585,0.2,0.017,-0.314,-0.133
0.1165,-0.136,-0.2525,0.0095,0.1845,-0.194,-0.071,0.1025,0.061,0.185,0.15,0.196,0.0135,-0.3045,-0.1235
0.11,-0.1465,-0.256,0.018,0.183,-0.2015,-0.0695,0.0975,0.0545,0.1805,0.1435,0.1925,0.011,-0.3045,-0.1175
0.102,-0.149,-0.251,0.0235,0.1765,-0.2,-0.0665,0.0975,0.054,0.1775,0.141,0.1915,0.008,-0.2995,-0.1075
0.1,-0.146,-0.246,0.023,0.173,-0.196,-0.0625,0.099,0.059,0.1815,0.147,0.194,0.0085,-0.289,-0.1065
0.101,-0.15,-0.251,0.0245,0.176,-0.2005,-0.0615,0.0975,0.06,0.1815,0.1485,0.196,0.01,-0.2905,-0.1085
0.1005,-0.157,-0.2575,0.0285,0.179,-0.2075,-0.0635,0.097,0.061,0.18,0.1475,0.1955,0.0105,-0.301,-0.1145
0.1005,-0.1595,-0.26,0.0295,0.1805,-0.21,-0.066,0.0965,0.0635,0.1805,0.1485,0.1965,0.012,-0.315,-0.122
0.104,-0.16,-0.264,0.028,0.184,-0.212,-0.0635,0.099,0.0685,0.183,0.1515,0.2005,0.013,-0.312,-0.1115
0.114,-0.152,-0.266,0.019,0.19,-0.209,-0.0605,0.1015,0.0725,0.188,0.1555,0.204,0.013,-0.306,-0.1095
0.1165,-0.1445,-0.261,0.014,0.189,-0.203,-0.0565,0.1035,0.08,0.192,0.159,0.2075,0.012,-0.3055,-0.117
0.1205,-0.141,-0.2615,0.01,0.191,-0.201,-0.0495,0.11,0.0895,0.2,0.167,0.2125,0.012,-0.308,-0.1175
0.1215,-0.133,-0.2545,0.0055,0.188,-0.194,-0.047,0.115,0.096,0.2065,0.174,0.2165,0.0145,-0.3075,-0.1405
0.1115,-0.14,-0.2515,0.014,0.1815,-0.1955,-0.0505,0.1135,0.0995,0.209,0.1725,0.215,0.0155,-0.2985,-0.146
0.1135,-0.138,-0.2515,0.012,0.1825,-0.1945,-0.053,0.108,0.094,0.2025,0.1665,0.212,0.014,-0.305,-0.1375
0.119,-0.128,-0.247,0.0045,0.183,-0.1875,-0.056,0.101,0.083,0.1895,0.158,0.2075,0.0115,-0.301,-0.144
0.133,-0.118,-0.251,-0.0075,0.192,-0.1845,-0.054,0.102,0.0845,0.1895,0.1595,0.207,0.0095,-0.303,-0.144
0.145,-0.107,-0.252,-0.019,0.1985,-0.1795,-0.051,0.1035,0.087,0.192,0.1605,0.208,0.006,-0.3125,-0.147
0.1515,-0.1045,-0.256,-0.0235,0.2035,-0.18,-0.0485,0.105,0.0845,0.191,0.159,0.2075,0.004,-0.311,-0.1395
0.1485,-0.113,-0.261,-0.0175,0.205,-0.187,-0.0485,0.104,0.0815,0.188,0.1565,0.206,0.004,-0.3135,-0.1235
0.1435,-0.1225,-0.266,-0.0105,0.205,-0.1945,-0.053,0.101,0.076,0.184,0.1505,0.2025,0.003,-0.3135,-0.114
0.1425,-0.1275,-0.27,-0.0075,0.206,-0.199,-0.052,0.1,0.069,0.179,0.1465,0.1985,0.0015,-0.317,-0.1185
0.128,-0.1445,-0.2725,0.0085,0.2,-0.2085,-0.0555,0.0925,0.06,0.169,0.1375,0.1875,-0.002,-0.3205,-0.1095
0.126,-0.1485,-0.2745,0.011,0.2,-0.2115,-0.057,0.0925,0.0615,0.1685,0.1365,0.1875,-0.001,-0.315,-0.1065
0.1235,-0.153,-0.2765,0.0145,0.2,-0.215,-0.057,0.0915,0.062,0.1695,0.138,0.1905,0.001,-0.3145,-0.1145
0.1165,-0.1645,-0.2815,0.024,0.199,-0.223,-0.058,0.092,0.0625,0.1705,0.1385,0.191,0.0025,-0.3105,-0.1005
0.1215,-0.1585,-0.28,0.0185,0.2005,-0.219,-0.054,0.097,0.069,0.1745,0.1425,0.1975,0.0025,-0.3195,-0.1085
0.1175,-0.1615,-0.2795,0.022,0.1985,-0.2205,-0.0535,0.096,0.0685,0.173,0.1405,0.193,-0.0015,-0.3315,-0.122
0.0955,-0.178,-0.274,0.041,0.185,-0.226,-0.056,0.093,0.064,0.17,0.137,0.185,-0.0045,-0.3185,-0.1165
0.073,-0.1925,-0.2655,0.06,0.169,-0.229,-0.0585,0.0875,0.0615,0.1665,0.132,0.179,-0.0065,-0.314,-0.1205
0.061,-0.201,-0.262,0.07,0.1615,-0.2315,-0.057,0.0885,0.0645,0.1675,0.132,0.1765,-0.008,-0.315,-0.123
0.076,-0.185,-0.261,0.0545,0.1685,-0.223,-0.048,0.1,0.0735,0.1775,0.143,0.187,-0.006,-0.3235,-0.1325
0.0995,-0.161,-0.2605,0.031,0.18,-0.211,-0.0425,0.1065,0.079,0.185,0.1505,0.194,-0.0035,-0.325,-0.1425
0.0985,-0.159,-0.258,0.03,0.1785,-0.2085,-0.045,0.104,0.0755,0.181,0.1465,0.1905,-0.0045,-0.316,-0.143
0.0955,-0.164,-0.2595,0.034,0.1775,-0.2115,-0.048,0.0985,0.069,0.1745,0.14,0.184,-0.007,-0.314,-0.1465
0.0935,-0.1595,-0.2535,0.033,0.1735,-0.2065,-0.0485,0.1,0.0645,0.1735,0.138,0.1835,-0.0085,-0.306,-0.1415
0.089,-0.155,-0.2445,0.0335,0.1665,-0.2,-0.049,0.099,0.064,0.174,0.1385,0.184,-0.009,-0.301,-0.133
0.0835,-0.154,-0.2375,0.0355,0.1605,-0.196,-0.052,0.094,0.0615,0.1755,0.138,0.18,-0.01,-0.302,-0.139
0.081,-0.1515,-0.2325,0.0355,0.157,-0.192,-0.0485,0.0925,0.0595,0.1755,0.1385,0.1785,-0.0125,-0.306,-0.143
0.08,-0.15,-0.23,0.035,0.155,-0.19,-0.046,0.088,0.0535,0.171,0.136,0.176,-0.0185,-0.3035,-0.13
0.0835,-0.144,-0.2275,0.03,0.1555,-0.186,-0.045,0.086,0.0495,0.1685,0.133,0.174,-0.022,-0.2995,-0.1265
0.0855,-0.139,-0.2245,0.027,0.155,-0.182,-0.0405,0.087,0.052,0.168,0.1315,0.173,-0.0255,-0.292,-0.12
0.0725,-0.145,-0.2175,0.0365,0.145,-0.181,-0.043,0.0835,0.0495,0.1645,0.1265,0.1675,-0.029,-0.2885,-0.1265
0.0575,-0.16,-0.2175,0.051,0.1375,-0.1885,-0.044,0.0805,0.044,0.1595,0.1205,0.1625,-0.0305,-0.2945,-0.1355
0.0465,-0.1715,-0.218,0.062,0.1325,-0.1945,-0.042,0.079,0.0415,0.1565,0.1165,0.1565,-0.0355,-0.2975,-0.1295
0.037,-0.1785,-0.2155,0.071,0.1265,-0.197,-0.037,0.0815,0.0445,0.158,0.1165,0.1545,-0.04,-0.302,-0.1245
0.034,-0.1795,-0.2135,0.0725,0.124,-0.1965,-0.0305,0.0865,0.0495,0.161,0.119,0.1535,-0.0425,-0.3075,-0.1285
0.0335,-0.1815,-0.215,0.074,0.1245,-0.1985,-0.0295,0.0895,0.051,0.1625,0.119,0.151,-0.045,-0.307,-0.1355
0.035,-0.1815,-0.2165,0.073,0.1255,-0.199,-0.028,0.091,0.051,0.1625,0.1185,0.1515,-0.0445,-0.315,-0.1385
0.045,-0.1715,-0.2165,0.063,0.131,-0.194,-0.027,0.09,0.0495,0.162,0.119,0.153,-0.0435,-0.3175,-0.1455
0.0505,-0.168,-0.2185,0.059,0.1345,-0.1935,-0.024,0.0925,0.0505,0.1645,0.119,0.151,-0.047,-0.3085,-0.1355
0.05,-0.1685,-0.2185,0.0595,0.134,-0.1935,-0.021,0.095,0.0545,0.1655,0.1225,0.153,-0.0475,-0.3065,-0.135
0.0475,-0.177,-0.224,0.0645,0.1355,-0.2005,-0.0235,0.0905,0.0535,0.163,0.1195,0.153,-0.0455,-0.3045,-0.137
0.05,-0.176,-0.226,0.063,0.138,-0.201,-0.0265,0.0875,0.051,0.162,0.1155,0.1515,-0.0455,-0.3095,-0.139
0.0595,-0.16,-0.2195,0.0505,0.1395,-0.19,-0.0255,0.09,0.052,0.165,0.119,0.155,-0.045,-0.308,-0.1485
0.058,-0.158,-0.2165,0.05,0.1375,-0.1875,-0.0275,0.084,0.048,0.161,0.115,0.153,-0.047,-0.317,-0.147
0.066,-0.1525,-0.2185,0.0435,0.1425,-0.1855,-0.0275,0.084,0.047,0.16,0.1155,0.153,-0.0455,-0.3185,-0.1545
0.0715,-0.1395,-0.211,0.034,0.141,-0.175,-0.022,0.091,0.052,0.1665,0.1215,0.1585,-0.0435,-0.3075,-0.161
0.064,-0.1465,-0.2105,0.0415,0.137,-0.1785,-0.0235,0.0895,0.049,0.1645,0.1185,0.1555,-0.0435,-0.3095,-0.1635
0.0635,-0.1505,-0.214,0.0435,0.139,-0.1825,-0.0245,0.0915,0.0485,0.164,0.1185,0.154,-0.0435,-0.2955,-0.1545
0.049,-0.161,-0.21,0.056,0.1295,-0.1855,-0.03,0.086,0.0445,0.1605,0.115,0.151,-0.0435,-0.301,-0.152
0.037,-0.175,-0.212,0.0685,0.1245,-0.1935,-0.035,0.0805,0.0365,0.1545,0.111,0.1475,-0.0415,-0.3105,-0.154
0.04,-0.173,-0.213,0.0665,0.1265,-0.193,-0.0335,0.082,0.0365,0.1585,0.1125,0.148,-0.0435,-0.306,-0.1475
0.046,-0.165,-0.2105,0.06,0.128,-0.188,-0.0305,0.0825,0.039,0.1595,0.1145,0.1475,-0.0465,-0.31,-0.1545
0.0465,-0.164,-0.2105,0.059,0.1285,-0.1875,-0.0255,0.087,0.042,0.162,0.1195,0.1505,-0.0465,-0.3115,-0.156
0.04,-0.177,-0.2165,0.0685,0.1285,-0.197,-0.0265,0.0865,0.041,0.1625,0.1155,0.148,-0.0495,-0.3235,-0.1515
0.055,-0.1685,-0.2235,0.0565,0.1395,-0.196,-0.025,0.09,0.048,0.162,0.115,0.149,-0.0525,-0.3275,-0.1495
0.0705,-0.155,-0.2255,0.0425,0.148,-0.1905,-0.0195,0.0945,0.053,0.164,0.1195,0.1525,-0.0535,-0.3185,-0.151
0.076,-0.15,-0.226,0.037,0.151,-0.188,-0.016,0.094,0.053,0.1665,0.122,0.1555,-0.053,-0.311,-0.1535
0.0815,-0.143,-0.225,0.0305,0.153,-0.184,-0.0135,0.096,0.057,0.171,0.126,0.1595,-0.054,-0.317,-0.156
0.078,-0.151,-0.229,0.0365,0.1535,-0.19,-0.0155,0.095,0.0555,0.1705,0.126,0.159,-0.0525,-0.328,-0.161
0.0515,-0.1785,-0.23,0.0635,0.141,-0.2045,-0.0205,0.0875,0.0465,0.1635,0.12,0.1535,-0.0515,-0.3275,-0.1675
0.028,-0.1955,-0.224,0.084,0.126,-0.21,-0.0225,0.082,0.045,0.1615,0.1175,0.1505,-0.0535,-0.321,-0.1645
0.0335,-0.1885,-0.2225,0.0775,0.128,-0.2055,-0.022,0.0815,0.0445,0.1615,0.118,0.1515,-0.054,-0.315,-0.1575
0.038,-0.18,-0.218,0.071,0.128,-0.199,-0.022,0.081,0.042,0.159,0.1155,0.1505,-0.0535,-0.32,-0.1595
0.042,-0.17,-0.212,0.064,0.1265,-0.1905,-0.0215,0.08,0.0435,0.159,0.116,0.149,-0.055,-0.316,-0.158
0.05,-0.16,-0.21,0.055,0.13,-0.185,-0.02,0.0825,0.0445,0.1605,0.1155,0.15,-0.056,-0.3125,-0.1595
0.053,-0.1535,-0.2065,0.05,0.13,-0.18,-0.0205,0.085,0.0455,0.1635,0.106,0.1535,-0.0545,-0.309,-0.1625
0.0525,-0.154,-0.207,0.0505,0.13,-0.1805,-0.0215,0.085,0.045,0.163,0.097,0.1535,-0.055,-0.3055,-0.1585
0.0585,-0.1525,-0.2115,0.047,0.135,-0.182,-0.022,0.086,0.0455,0.1615,0.1015,0.155,-0.052,-0.3075,-0.157
0.0575,-0.1525,-0.21,0.0475,0.134,-0.1815,-0.0225,0.0835,0.0465,0.161,0.104,0.1515,-0.052,-0.3085,-0.1555
0.0435,-0.1635,-0.207,0.06,0.125,-0.1855,-0.0235,0.079,0.0445,0.158,0.1035,0.1455,-0.053,-0.309,-0.1455
0.032,-0.176,-0.208,0.072,0.12,-0.192,-0.0245,0.078,0.041,0.1565,0.1085,0.1435,-0.0515,-0.3005,-0.138
0.0295,-0.18,-0.2095,0.075,0.12,-0.195,-0.028,0.08,0.0365,0.1525,0.1125,0.141,-0.053,-0.2985,-0.138
0.0385,-0.1735,-0.212,0.067,0.1255,-0.1925,-0.027,0.0825,0.041,0.154,0.1185,0.1445,-0.052,-0.301,-0.1405
0.034,-0.177,-0.211,0.0715,0.1225,-0.194,-0.021,0.0875,0.047,0.16,0.124,0.148,-0.0515,-0.31,-0.147
0.0335,-0.1765,-0.21,0.0715,0.1215,-0.193,-0.02,0.0895,0.0465,0.1605,0.1245,0.1485,-0.053,-0.318,-0.15
0.043,-0.1725,-0.2155,0.0645,0.129,-0.194,-0.019,0.091,0.045,0.1605,0.122,0.1485,-0.0535,-0.314,-0.1475
0.0395,-0.177,-0.217,0.0685,0.128,-0.197,-0.021,0.0895,0.0405,0.159,0.1205,0.1485,-0.0525,-0.306,-0.144
0.0335,-0.1775,-0.2115,0.072,0.1225,-0.1945,-0.0225,0.089,0.039,0.1585,0.1195,0.1485,-0.0525,-0.305,-0.1435
0.033,-0.177,-0.21,0.072,0.1215,-0.1935,-0.019,0.0925,0.043,0.161,0.1205,0.149,-0.0535,-0.31,-0.152
0.041,-0.172,-0.213,0.0655,0.127,-0.1925,-0.016,0.096,0.048,0.166,0.123,0.152,-0.054,-0.318,-0.1595
0.0475,-0.165,-0.2125,0.059,0.13,-0.189,-0.011,0.1015,0.0555,0.1725,0.1285,0.157,-0.0535,-0.3245,-0.1605
0.0565,-0.1565,-0.213,0.05,0.1345,-0.185,-0.008,0.103,0.057,0.1745,0.1305,0.1595,-0.0535,-0.323,-0.167
0.0575,-0.152,-0.2095,0.047,0.134,-0.181,-0.008,0.103,0.054,0.1705,0.1255,0.1575,-0.054,-0.3195,-0.167
0.0555,-0.149,-0.205,0.047,0.13,-0.177,-0.011,0.0985,0.052,0.1675,0.121,0.1545,-0.0545,-0.316,-0.1705
0.053,-0.1485,-0.2015,0.048,0.127,-0.175,-0.014,0.092,0.049,0.1665,0.1195,0.151,-0.0545,-0.312,-0.1775
0.036,-0.162,-0.198,0.063,0.117,-0.18,-0.021,0.0855,0.0435,0.161,0.1145,0.1465,-0.052,-0.3095,-0.17
0.0275,-0.168,-0.195,0.0705,0.111,-0.1815,-0.0225,0.0815,0.0415,0.16,0.1135,0.1455,-0.051,-0.308,-0.1715
0.0225,-0.169,-0.1915,0.0735,0.107,-0.18,-0.0185,0.0845,0.045,0.162,0.1145,0.1485,-0.0525,-0.3105,-0.1715
0.0015,-0.1875,-0.189,0.093,0.095,-0.188,-0.0275,0.0785,0.037,0.154,0.107,0.1415,-0.0515,-0.3065,-0.165
-0.016,-0.207,-0.1905,0.1115,0.0875,-0.1985,-0.0365,0.0705,0.029,0.147,0.1005,0.133,-0.05,-0.295,-0.16
-0.0145,-0.2105,-0.196,0.1125,0.091,-0.2035,-0.036,0.0685,0.026,0.1455,0.097,0.131,-0.0515,-0.296,-0.1585
-0.0025,-0.202,-0.1995,0.1025,0.0985,-0.201,-0.0335,0.0685,0.027,0.1475,0.0975,0.1325,-0.0535,-0.2935,-0.1525
0.005,-0.198,-0.203,0.0965,0.1035,-0.2005,-0.0285,0.071,0.0295,0.1495,0.1,0.1355,-0.0545,-0.3005,-0.149
0.011,-0.192,-0.203,0.0905,0.107,-0.1975,-0.0225,0.078,0.033,0.155,0.1055,0.1415,-0.055,-0.2985,-0.1545
0.028,-0.176,-0.2035,0.074,0.116,-0.1895,-0.0155,0.086,0.0405,0.1625,0.113,0.149,-0.054,-0.2955,-0.1545
0.035,-0.172,-0.207,0.0685,0.121,-0.189,-0.0105,0.09,0.045,0.165,0.116,0.1515,-0.055,-0.32,-0.1575
0.0455,-0.1625,-0.208,0.0585,0.127,-0.1855,-0.006,0.0955,0.051,0.1725,0.1185,0.1575,-0.054,-0.3195,-0.158
0.0715,-0.1375,-0.2085,0.033,0.14,-0.173,-0.003,0.1025,0.0575,0.178,0.124,0.1655,-0.052,-0.3125,-0.154
0.086,-0.124,-0.2105,0.019,0.148,-0.167,0.0005,0.1075,0.063,0.177,0.132,0.1715,-0.0515,-0.307,-0.156
0.0905,-0.12,-0.211,0.015,0.151,-0.1655,0.002,0.1065,0.064,0.176,0.1325,0.172,-0.052,-0.304,-0.1655
0.079,-0.134,-0.213,0.0275,0.146,-0.1735,-0.002,0.105,0.0605,0.176,0.1285,0.167,-0.0515,-0.3125,-0.169
0.065,-0.148,-0.2125,0.0415,0.1385,-0.18,-0.0015,0.1085,0.0605,0.178,0.129,0.1655,-0.052,-0.317,-0.169
0.0485,-0.154,-0.2025,0.0525,0.1255,-0.1785,-0.005,0.106,0.0545,0.174,0.1235,0.1575,-0.054,-0.3185,-0.1735
0.027,-0.1735,-0.2,0.0735,0.1135,-0.187,-0.0145,0.098,0.045,0.1645,0.113,0.1445,-0.0545,-0.3155,-0.175
0.0085,-0.1855,-0.194,0.0885,0.101,-0.19,-0.0175,0.0995,0.042,0.1625,0.1095,0.1405,-0.0535,-0.306,-0.1765
-0.0005,-0.1855,-0.185,0.0935,0.092,-0.1855,-0.0145,0.1035,0.047,0.1665,0.113,0.143,-0.053,-0.2985,-0.1745
0.0195,-0.1625,-0.182,0.0715,0.1005,-0.172,-0.004,0.118,0.0625,0.1775,0.121,0.1505,-0.052,-0.2965,-0.169
0.034,-0.149,-0.1835,0.0575,0.1085,-0.1665,0.0035,0.1365,0.078,0.187,0.1275,0.1535,-0.0495,-0.2945,-0.17
0.019,-0.162,-0.181,0.0715,0.1,-0.1715,0.001,0.144,0.0855,0.1865,0.123,0.146,-0.0495,-0.2855,-0.174
-0.002,-0.1725,-0.1705,0.0875,0.084,-0.1715,-0.002,0.1555,0.093,0.188,0.1225,0.141,-0.048,-0.2775,-0.183
-0.0095,-0.1755,-0.1665,0.0925,0.0785,-0.171,-0.003,0.157,0.0985,0.189,0.1235,0.14,-0.0465,-0.2715,-0.1875
0.0045,-0.162,-0.1665,0.079,0.0855,-0.164,0.0,0.1645,0.106,0.1935,0.1255,0.1435,-0.0475,-0.262,-0.174
0.0175,-0.15,-0.1675,0.066,0.0925,-0.1585,0.0,0.1805,0.1195,0.205,0.136,0.15,-0.042,-0.2555,-0.178
0.017,-0.1475,-0.1645,0.065,0.0905,-0.156,-0.0005,0.191,0.1275,0.216,0.1505,0.1575,-0.0355,-0.255,-0.185
0.0245,-0.135,-0.1595,0.055,0.092,-0.1475,0.002,0.1975,0.134,0.2285,0.166,0.173,-0.0265,-0.26,-0.18
0.0295,-0.1215,-0.1505,0.046,0.09,-0.136,0.0065,0.203,0.148,0.241,0.1795,0.1815,-0.0225,-0.248,-0.195
0.0215,-0.121,-0.1425,0.05,0.082,-0.132,0.006,0.2115,0.162,0.255,0.1925,0.1855,-0.0175,-0.2445,-0.204
0.033,-0.1055,-0.1385,0.036,0.086,-0.122,-0.0065,0.1935,0.1575,0.264,0.209,0.196,-0.006,-0.237,-0.207
0.041,-0.0985,-0.1395,0.0285,0.09,-0.119,-0.0195,0.1615,0.1415,0.27,0.224,0.203,0.002,-0.232,-0.208
0.041,-0.0925,-0.1335,0.0255,0.087,-0.113,-0.029,0.139,0.131,0.2865,0.2475,0.2185,0.017,-0.2365,-0.223
0.036,-0.078,-0.114,0.021,0.075,-0.096,-0.0455,0.0955,0.114,0.299,0.273,0.2335,0.03,-0.229,-0.23
0.0305,-0.0755,-0.106,0.0225,0.0685,-0.0905,-0.066,0.0415,0.0865,0.307,0.2955,0.249,0.043,-0.2265,-0.213
0.043,-0.046,-0.089,0.0015,0.066,-0.0675,-0.0965,-0.023,0.0525,0.3155,0.3275,0.2735,0.0625,-0.202,-0.2025
0.0435,-0.014,-0.0575,-0.015,0.0505,-0.0355,-0.137,-0.1165,0.013,0.326,0.3685,0.2995,0.086,-0.1725,-0.1895
0.0515,0.0155,-0.036,-0.0335,0.044,-0.01,-0.17,-0.1955,-0.015,0.3535,0.4215,0.334,0.1175,-0.1565,-0.193
0.0705,0.0425,-0.028,-0.0565,0.049,0.007,-0.208,-0.27,-0.0475,0.3915,0.4865,0.3745,0.157,-0.1395,-0.183
0.0845,0.065,-0.02,-0.0745,0.0525,0.0225,-0.251,-0.3495,-0.088,0.4345,0.562,0.421,0.2015,-0.1215,-0.17
0.104,0.077,-0.027,-0.0905,0.0655,0.025,-0.3045,-0.4275,-0.135,0.4725,0.64,0.47,0.2535,-0.117,-0.146
0.125,0.0785,-0.0465,-0.1015,0.086,0.016,-0.3595,-0.496,-0.19,0.5055,0.7165,0.5215,0.3155,-0.118,-0.104
0.1615,0.093,-0.0685,-0.127,0.115,0.012,-0.4085,-0.562,-0.2565,0.5255,0.793,0.5825,0.3785,-0.118,-0.0615
0.1985,0.101,-0.0975,-0.1495,0.1485,0.0015,-0.4685,-0.6435,-0.352,0.5295,0.8645,0.6425,0.4395,-0.1345,0.0015
0.23,0.0925,-0.1375,-0.1615,0.184,-0.0225,-0.536,-0.74,-0.467,0.52,0.9225,0.6945,0.4965,-0.1515,0.078
0.259,0.067,-0.1915,-0.163,0.225,-0.062,-0.6105,-0.845,-0.5975,0.498,0.971,0.738,0.552,-0.1645,0.164
0.2895,0.041,-0.2485,-0.165,0.269,-0.1035,-0.6755,-0.92,-0.7085,0.4955,1.037,0.7915,0.618,-0.193,0.2285
0.3305,0.027,-0.3035,-0.179,0.317,-0.138,-0.7355,-0.9715,-0.786,0.515,1.126,0.8645,0.6995,-0.215,0.282
0.3745,0.014,-0.361,-0.194,0.3675,-0.1735,-0.792,-1.015,-0.851,0.537,1.2115,0.935,0.7805,-0.2315,0.343
0.4185,0.0045,-0.414,-0.2115,0.416,-0.2045,-0.841,-1.0665,-0.917,0.5555,1.2815,0.9965,0.8505,-0.2465,0.4045
0.444,0.017,-0.427,-0.2305,0.4355,-0.205,-0.8865,-1.14,-0.9865,0.58,1.359,1.063,0.915,-0.2465,0.4345
0.4735,0.041,-0.4325,-0.257,0.453,-0.1955,-0.9465,-1.2305,-1.059,0.622,1.4595,1.143,0.9905,-0.238,0.454
0.502,0.055,-0.4465,-0.2785,0.474,-0.1955,-1.0075,-1.3305,-1.128,0.682,1.573,1.221,1.071,-0.224,0.4835
0.535,0.077,-0.458,-0.306,0.4965,-0.1905,-1.066,-1.4295,-1.188,0.7545,1.6985,1.306,1.1575,-0.225,0.502
0.587,0.0965,-0.4905,-0.3415,0.5385,-0.197,-1.1395,-1.529,-1.2385,0.8305,1.825,1.402,1.2525,-0.23,0.5265
0.6315,0.1055,-0.526,-0.3685,0.5785,-0.2105,-1.209,-1.618,-1.274,0.911,1.944,1.493,1.3465,-0.235,0.55
0.6705,0.1075,-0.563,-0.389,0.6165,-0.228,-1.271,-1.697,-1.3055,0.9925,2.0515,1.5745,1.4365,-0.2445,0.5745
0.715,0.1075,-0.6075,-0.411,0.6605,-0.25,-1.3285,-1.7725,-1.339,1.057,2.136,1.6485,1.516,-0.253,0.6025
0.7675,0.0885,-0.679,-0.428,0.723,-0.295,-1.383,-1.8545,-1.3865,1.103,2.2025,1.7165,1.5935,-0.2795,0.644
0.815,0.0315,-0.7835,-0.423,0.799,-0.376,-1.427,-1.935,-1.4575,1.11,2.2325,1.7725,1.661,-0.3285,0.699
0.8585,-0.022,-0.8805,-0.4185,0.869,-0.451,-1.4735,-1.995,-1.4975,1.126,2.2385,1.818,1.7175,-0.385,0.7485
0.9015,-0.1065,-1.0085,-0.3975,0.9545,-0.5575,-1.504,-2.009,-1.4945,1.1285,2.1625,1.8245,1.743,-0.458,0.808
0.9375,-0.235,-1.173,-0.351,1.055,-0.704,-1.5035,-1.959,-1.493,1.0425,1.9615,1.7895,1.723,-0.5645,0.884
0.9725,-0.3785,-1.351,-0.297,1.161,-0.865,-1.493,-1.8775,-1.4945,0.906,1.706,1.7385,1.6845,-0.6815,0.969
1.009,-0.481,-1.49,-0.264,1.249,-0.9855,-1.4805,-1.795,-1.479,0.7965,1.5125,1.718,1.6675,-0.7565,1.0235
1.0395,-0.5375,-1.5775,-0.251,1.308,-1.0575,-1.458,-1.7125,-1.4495,0.7205,1.38,1.7085,1.6555,-0.8065,1.06
1.0695,-0.597,-1.6665,-0.236,1.3675,-1.132,-1.4225,-1.6475,-1.45,0.6105,1.2395,1.6775,1.6225,-0.865,1.098
1.092,-0.647,-1.739,-0.2225,1.415,-1.193,-1.392,-1.5955,-1.457,0.483,1.0885,1.6335,1.5785,-0.9155,1.132
1.105,-0.693,-1.798,-0.206,1.451,-1.2455,-1.3675,-1.5455,-1.4675,0.316,0.892,1.5685,1.5105,-0.9485,1.1745
1.1375,-0.718,-1.8555,-0.21,1.496,-1.2865,-1.3595,-1.495,-1.487,0.1475,0.733,1.5355,1.467,-0.9785,1.192
1.1645,-0.7435,-1.908,-0.2105,1.5355,-1.3255,-1.351,-1.446,-1.4855,0.0145,0.6105,1.5065,1.437,-1.008,1.2185
1.1735,-0.777,-1.9505,-0.198,1.5615,-1.364,-1.336,-1.394,-1.491,-0.1565,0.459,1.4635,1.3905,-1.0235,1.2535
1.183,-0.802,-1.9845,-0.1905,1.583,-1.393,-1.3195,-1.3445,-1.509,-0.358,0.2855,1.4135,1.3295,-1.0455,1.2795
1.1885,-0.8155,-2.0045,-0.1865,1.596,-1.41,-1.3045,-1.3115,-1.5375,-0.5685,0.09,1.3385,1.248,-1.0485,1.314
1.195,-0.8285,-2.0235,-0.183,1.6085,-1.426,-1.2845,-1.2685,-1.558,-0.771,-0.0905,1.2665,1.1695,-1.069,1.3315
1.1895,-0.8375,-2.0265,-0.176,1.6075,-1.432,-1.2545,-1.221,-1.5565,-0.929,-0.2455,1.192,1.09,-1.083,1.333
1.1805,-0.835,-2.015,-0.173,1.597,-1.425,-1.224,-1.167,-1.533,-1.024,-0.358,1.1205,1.0215,-1.067,1.3285
1.178,-0.8315,-2.0095,-0.173,1.593,-1.4205,-1.1855,-1.0935,-1.4755,-1.031,-0.41,1.063,0.9735,-1.0585,1.3035
1.169,-0.817,-1.986,-0.176,1.577,-1.4015,-1.148,-1.023,-1.4065,-0.9935,-0.426,1.02,0.9385,-1.029,1.264
1.1545,-0.7895,-1.944,-0.183,1.549,-1.3665,-1.1195,-0.974,-1.347,-0.962,-0.4395,0.98,0.902,-1.0055,1.229
1.129,-0.7645,-1.8935,-0.182,1.5105,-1.329,-1.0925,-0.9325,-1.289,-0.925,-0.447,0.9355,0.86,-0.9825,1.1905
1.111,-0.746,-1.857,-0.1825,1.4835,-1.3015,-1.055,-0.8815,-1.228,-0.884,-0.4505,0.8905,0.82,-0.9615,1.146
1.0905,-0.729,-1.8195,-0.1805,1.4545,-1.2745,-1.0135,-0.828,-1.163,-0.841,-0.4505,0.843,0.78,-0.932,1.101
1.039,-0.739,-1.7785,-0.15,1.408,-1.2585,-0.977,-0.777,-1.101,-0.8035,-0.466,0.784,0.7325,-0.912,1.042
1.0165,-0.7335,-1.75,-0.1415,1.3825,-1.2415,-0.935,-0.725,-1.041,-0.763,-0.4785,0.7355,0.691,-0.9045,0.9865
1.008,-0.714,-1.722,-0.147,1.3645,-1.218,-0.8945,-0.6725,-0.9795,-0.72,-0.4605,0.711,0.665,-0.891,0.9475
0.9835,-0.7085,-1.692,-0.1375,1.3375,-1.2005,-0.852,-0.629,-0.932,-0.694,-0.4585,0.669,0.6255,-0.876,0.9105
0.9665,-0.7015,-1.668,-0.1325,1.3165,-1.1845,-0.807,-0.5925,-0.8985,-0.679,-0.469,0.6165,0.579,-0.8715,0.881
0.94,-0.7035,-1.6435,-0.118,1.2915,-1.1735,-0.7655,-0.551,-0.856,-0.654,-0.4665,0.5725,0.541,-0.8805,0.8305
0.9145,-0.6925,-1.607,-0.111,1.2605,-1.15,-0.7255,-0.508,-0.813,-0.626,-0.4585,0.525,0.501,-0.864,0.7835
0.888,-0.6935,-1.5815,-0.0975,1.2345,-1.1375,-0.6895,-0.464,-0.7775,-0.6065,-0.4615,0.4755,0.4615,-0.8535,0.759
0.8545,-0.707,-1.5615,-0.0735,1.2075,-1.134,-0.6485,-0.4125,-0.736,-0.5815,-0.4615,0.4295,0.4245,-0.842,0.7295
0.837,-0.7025,-1.5395,-0.0675,1.188,-1.121,-0.606,-0.3665,-0.6985,-0.558,-0.4625,0.3865,0.3855,-0.8325,0.694
0.8105,-0.692,-1.5025,-0.0595,1.156,-1.097,-0.5615,-0.317,-0.6575,-0.5315,-0.461,0.349,0.3475,-0.8285,0.647
0.7715,-0.694,-1.4655,-0.0385,1.118,-1.0795,-0.5215,-0.275,-0.6155,-0.5015,-0.45,0.317,0.318,-0.828,0.609
0.75,-0.685,-1.435,-0.0325,1.092,-1.06,-0.489,-0.243,-0.579,-0.4745,-0.439,0.2895,0.2905,-0.825,0.5745
0.729,-0.6665,-1.3955,-0.031,1.0615,-1.031,-0.4595,-0.215,-0.5485,-0.454,-0.434,0.2635,0.263,-0.8075,0.545
0.6985,-0.6655,-1.364,-0.0165,1.0305,-1.0145,-0.43,-0.1975,-0.533,-0.4485,-0.4405,0.2275,0.2295,-0.806,0.526
0.667,-0.664,-1.331,-0.0015,0.9985,-0.9975,-0.4005,-0.1735,-0.5065,-0.432,-0.434,0.204,0.205,-0.7925,0.51
0.637,-0.662,-1.299,0.0125,0.9675,-0.9805,-0.3775,-0.148,-0.479,-0.415,-0.4255,0.189,0.1885,-0.78,0.492
0.608,-0.655,-1.263,0.0235,0.935,-0.959,-0.3495,-0.124,-0.453,-0.397,-0.416,0.17,0.1665,-0.7665,0.469
0.5805,-0.644,-1.2245,0.032,0.902,-0.9345,-0.3205,-0.095,-0.419,-0.3705,-0.399,0.158,0.1485,-0.7495,0.4465
0.5475,-0.636,-1.1835,0.0445,0.865,-0.9095,-0.294,-0.073,-0.391,-0.351,-0.389,0.1355,0.124,-0.7425,0.4165
0.5095,-0.627,-1.137,0.059,0.8225,-0.882,-0.2685,-0.0565,-0.365,-0.329,-0.3775,0.114,0.099,-0.7185,0.3905
0.471,-0.616,-1.087,0.0725,0.7785,-0.8515,-0.2435,-0.0385,-0.338,-0.3065,-0.364,0.102,0.0765,-0.7,0.365
0.434,-0.5985,-1.0325,0.0825,0.733,-0.8155,-0.2165,-0.017,-0.3075,-0.281,-0.3435,0.0925,0.058,-0.691,0.323
0.402,-0.582,-0.984,0.09,0.6925,-0.783,-0.1925,0.002,-0.276,-0.252,-0.321,0.0865,0.042,-0.673,0.287
0.3725,-0.5605,-0.933,0.094,0.652,-0.7465,-0.1715,0.01,-0.253,-0.2305,-0.3035,0.0795,0.0225,-0.649,0.2565
0.343,-0.543,-0.886,0.1,0.614,-0.7145,-0.153,0.0165,-0.2355,-0.2125,-0.2895,0.0705,0.0045,-0.633,0.2285
0.3175,-0.524,-0.8415,0.1035,0.579,-0.683,-0.1345,0.0275,-0.213,-0.193,-0.2755,0.058,-0.0135,-0.6225,0.2025
0.2865,-0.502,-0.7885,0.108,0.537,-0.6455,-0.1185,0.038,-0.1885,-0.17,-0.2565,0.051,-0.0275,-0.5915,0.175
0.2575,-0.481,-0.739,0.1115,0.498,-0.61,-0.0975,0.05,-0.163,-0.146,-0.2365,0.047,-0.043,-0.564,0.1505
0.2165,-0.472,-0.688,0.128,0.452,-0.58,-0.0815,0.064,-0.136,-0.119,-0.2145,0.044,-0.053,-0.547,0.121
0.1815,-0.451,-0.6325,0.1345,0.407,-0.542,-0.0605,0.084,-0.1055,-0.088,-0.19,0.046,-0.0635,-0.535,0.092
0.193,-0.405,-0.598,0.106,0.3955,-0.5015,-0.0345,0.11,-0.074,-0.056,-0.157,0.0575,-0.07,-0.534,0.0585
0.178,-0.392,-0.57,0.107,0.374,-0.481,-0.0205,0.1285,-0.0485,-0.027,-0.1325,0.0615,-0.0705,-0.5105,0.0355
0.139,-0.3895,-0.529,0.125,0.334,-0.4595,-0.0105,0.139,-0.0285,-0.011,-0.1245,0.051,-0.081,-0.4855,0.009
0.099,-0.3915,-0.4905,0.146,0.295,-0.441,-0.005,0.143,-0.016,-0.0015,-0.12,0.0365,-0.0905,-0.4595,-0.019
0.0735,-0.377,-0.4505,0.1515,0.2625,-0.414,0.008,0.1535,0.007,0.0205,-0.105,0.031,-0.099,-0.44,-0.0455
0.07,-0.351,-0.421,0.1405,0.2455,-0.386,0.025,0.172,0.03,0.04,-0.0865,0.037,-0.1045,-0.4365,-0.0655
0.066,-0.336,-0.4015,0.135,0.234,-0.369,0.038,0.1835,0.042,0.05,-0.0745,0.0375,-0.112,-0.423,-0.063
0.0715,-0.3065,-0.3775,0.1175,0.2245,-0.342,0.047,0.192,0.056,0.0645,-0.0605,0.041,-0.1155,-0.412,-0.0765
0.0545,-0.298,-0.352,0.122,0.203,-0.325,0.0555,0.204,0.0735,0.08,-0.049,0.041,-0.1185,-0.3915,-0.086
0.0425,-0.291,-0.3335,0.1245,0.188,-0.3125,0.0625,0.212,0.0875,0.092,-0.04,0.039,-0.1235,-0.371,-0.087
0.036,-0.283,-0.319,0.1235,0.1775,-0.301,0.069,0.2215,0.099,0.104,-0.029,0.042,-0.125,-0.363,-0.0995
0.025,-0.283,-0.308,0.129,0.1665,-0.2955,0.075,0.231,0.109,0.1145,-0.0205,0.0445,-0.126,-0.349,-0.107
0.0285,-0.275,-0.3025,0.1235,0.1655,-0.289,0.0785,0.2335,0.1155,0.1225,-0.014,0.049,-0.127,-0.34,-0.1105
0.0265,-0.2635,-0.29,0.119,0.158,-0.2765,0.086,0.242,0.1245,0.1335,-0.007,0.0535,-0.129,-0.3395,-0.1165
0.0155,-0.2645,-0.2795,0.1245,0.1475,-0.272,0.0855,0.239,0.125,0.1365,-0.006,0.0495,-0.133,-0.339,-0.123
0.004,-0.265,-0.269,0.1305,0.1365,-0.267,0.0825,0.2335,0.1215,0.1355,-0.008,0.0445,-0.1355,-0.3375,-0.1375
0.0105,-0.25,-0.2605,0.1195,0.1355,-0.255,0.085,0.2355,0.1235,0.1345,0.0025,0.055,-0.132,-0.335,-0.1545
0.024,-0.2295,-0.253,0.103,0.1385,-0.241,0.0845,0.235,0.126,0.1375,0.0115,0.064,-0.1305,-0.332,-0.157
0.0265,-0.2135,-0.24,0.0935,0.133,-0.227,0.086,0.2345,0.1285,0.147,0.0165,0.068,-0.1295,-0.321,-0.162
0.03,-0.2065,-0.2365,0.088,0.133,-0.2215,0.086,0.2355,0.135,0.1545,0.024,0.0745,-0.126,-0.322,-0.1745
0.025,-0.2035,-0.228,0.0895,0.1265,-0.2155,0.0855,0.237,0.1385,0.158,0.028,0.0775,-0.1235,-0.313,-0.178
0.004,-0.216,-0.22,0.106,0.112,-0.218,0.084,0.2365,0.137,0.159,0.029,0.0765,-0.121,-0.304,-0.1835
-0.0035,-0.22,-0.217,0.112,0.1065,-0.2185,0.079,0.234,0.1355,0.1585,0.0265,0.075,-0.1215,-0.307,-0.1885
-0.005,-0.212,-0.2075,0.1085,0.101,-0.2095,0.077,0.2325,0.134,0.158,0.027,0.0775,-0.12,-0.2995,-0.1875
-0.001,-0.199,-0.1985,0.1,0.0985,-0.1985,0.0785,0.2365,0.1365,0.1625,0.03,0.082,-0.119,-0.3015,-0.187
0.012,-0.186,-0.1985,0.087,0.105,-0.192,0.0805,0.2395,0.1405,0.1635,0.0315,0.0835,-0.12,-0.2995,-0.1855
0.0175,-0.1845,-0.2025,0.0835,0.11,-0.1935,0.0825,0.2405,0.145,0.163,0.0335,0.084,-0.121,-0.2985,-0.184
0.005,-0.19,-0.195,0.0925,0.1,-0.1925,0.08,0.2405,0.147,0.1625,0.032,0.082,-0.12,-0.297,-0.184
-0.009,-0.19,-0.1815,0.0995,0.086,-0.186,0.0805,0.241,0.15,0.163,0.033,0.0815,-0.1205,-0.287,-0.1865
-0.0015,-0.181,-0.179,0.0915,0.089,-0.18,0.084,0.246,0.154,0.1665,0.0345,0.0835,-0.1215,-0.2865,-0.1995
0.0075,-0.181,-0.1885,0.087,0.098,-0.185,0.0825,0.2475,0.1545,0.166,0.0365,0.081,-0.122,-0.2975,-0.2125
0.0195,-0.181,-0.201,0.081,0.1105,-0.191,0.085,0.2475,0.157,0.167,0.0365,0.0785,-0.1245,-0.2995,-0.201
0.0085,-0.19,-0.198,0.091,0.1035,-0.194,0.086,0.2475,0.1585,0.1685,0.0355,0.079,-0.1245,-0.291,-0.196
-0.0085,-0.202,-0.1935,0.105,0.0925,-0.1975,0.086,0.248,0.1595,0.1695,0.036,0.0775,-0.126,-0.2925,-0.2105
0.0075,-0.1965,-0.2035,0.0945,0.1055,-0.2,0.0875,0.2515,0.1635,0.172,0.0385,0.0775,-0.127,-0.297,-0.211
0.02,-0.1875,-0.2075,0.0835,0.114,-0.1975,0.088,0.251,0.1655,0.172,0.04,0.079,-0.1265,-0.2945,-0.2095
0.0195,-0.1825,-0.202,0.0815,0.111,-0.1925,0.091,0.251,0.168,0.171,0.0395,0.0765,-0.1295,-0.29,-0.219
0.0145,-0.1825,-0.197,0.084,0.106,-0.19,0.0945,0.2575,0.1745,0.1755,0.044,0.078,-0.131,-0.2945,-0.224
0.0145,-0.177,-0.192,0.081,0.103,-0.1845,0.0965,0.2625,0.182,0.1815,0.048,0.083,-0.13,-0.303,-0.229
0.014,-0.1765,-0.1905,0.081,0.102,-0.1835,0.098,0.264,0.1865,0.183,0.0485,0.085,-0.129,-0.304,-0.2375
0.006,-0.18,-0.1855,0.087,0.096,-0.183,0.097,0.262,0.187,0.182,0.0465,0.0815,-0.1305,-0.301,-0.2395
-0.0085,-0.1885,-0.18,0.0985,0.0855,-0.184,0.09,0.257,0.184,0.1775,0.0415,0.076,-0.1315,-0.308,-0.2395
-0.017,-0.1905,-0.174,0.1035,0.0785,-0.182,0.091,0.2595,0.1855,0.18,0.043,0.0765,-0.132,-0.3085,-0.2455
-0.0095,-0.177,-0.1675,0.0935,0.079,-0.1725,0.0955,0.2615,0.1855,0.182,0.0435,0.0735,-0.134,-0.2955,-0.2435
-0.0015,-0.172,-0.1705,0.087,0.0845,-0.1715,0.0925,0.2595,0.1835,0.1795,0.0405,0.0705,-0.1345,-0.298,-0.238
-0.001,-0.1655,-0.1645,0.083,0.0815,-0.165,0.0965,0.2655,0.1905,0.186,0.046,0.0755,-0.133,-0.294,-0.2435
-0.002,-0.1615,-0.1595,0.082,0.079,-0.1605,0.0995,0.27,0.193,0.1885,0.0495,0.078,-0.1345,-0.28,-0.238
-0.003,-0.164,-0.161,0.0835,0.079,-0.1625,0.0995,0.267,0.1905,0.186,0.0455,0.0745,-0.1365,-0.2785,-0.2295
-0.0005,-0.1615,-0.1605,0.081,0.08,-0.161,0.0985,0.2685,0.193,0.1845,0.0445,0.072,-0.137,-0.283,-0.2385
-0.0005,-0.1605,-0.16,0.0805,0.08,-0.1605,0.0975,0.2725,0.197,0.1865,0.046,0.074,-0.1355,-0.286,-0.2365
-0.0035,-0.1585,-0.155,0.081,0.076,-0.157,0.101,0.276,0.201,0.1905,0.0485,0.077,-0.135,-0.2805,-0.224
-0.003,-0.1615,-0.1585,0.0825,0.0775,-0.16,0.101,0.2755,0.198,0.19,0.048,0.077,-0.1345,-0.2765,-0.2305
-0.0205,-0.1785,-0.158,0.0995,0.0685,-0.168,0.0995,0.274,0.192,0.1875,0.046,0.0745,-0.134,-0.284,-0.237
-0.0235,-0.183,-0.1595,0.1035,0.068,-0.1715,0.1,0.2755,0.19,0.187,0.047,0.074,-0.1355,-0.285,-0.234
-0.0175,-0.18,-0.162,0.099,0.0725,-0.171,0.1,0.2775,0.189,0.188,0.048,0.075,-0.135,-0.2905,-0.2395
-0.015,-0.181,-0.166,0.0985,0.0755,-0.1735,0.0995,0.278,0.1885,0.1875,0.0475,0.0755,-0.132,-0.299,-0.2525
-0.0135,-0.187,-0.1735,0.1005,0.08,-0.1805,0.095,0.276,0.1855,0.184,0.0425,0.069,-0.134,-0.295,-0.2605
-0.018,-0.1905,-0.173,0.1045,0.0775,-0.182,0.0955,0.278,0.187,0.1855,0.0425,0.069,-0.1355,-0.3,-0.2705
-0.0205,-0.1895,-0.169,0.105,0.074,-0.1795,0.097,0.2745,0.188,0.1865,0.0435,0.0685,-0.137,-0.3015,-0.2825
-0.0335,-0.194,-0.1605,0.114,0.0635,-0.1775,0.0985,0.2755,0.19,0.1865,0.0415,0.0645,-0.139,-0.2985,-0.2695
-0.028,-0.1855,-0.1575,0.107,0.0645,-0.1715,0.103,0.282,0.1975,0.1925,0.048,0.07,-0.1375,-0.298,-0.262
-0.0215,-0.175,-0.1535,0.0985,0.066,-0.164,0.1015,0.2825,0.1975,0.1945,0.0445,0.0725,-0.1365,-0.294,-0.257
-0.0235,-0.175,-0.1515,0.099,0.064,-0.163,0.1025,0.2865,0.196,0.1945,0.031,0.0705,-0.14,-0.286,-0.2495
-0.011,-0.1625,-0.1515,0.0865,0.0705,-0.157,0.104,0.29,0.197,0.196,0.028,0.0705,-0.1405,-0.2745,-0.2525
-0.009,-0.1545,-0.1455,0.0815,0.0685,-0.15,0.1015,0.287,0.195,0.196,0.0305,0.0685,-0.14,-0.271,-0.2555
-0.0135,-0.157,-0.1435,0.085,0.065,-0.1505,0.103,0.282,0.1955,0.196,0.0335,0.067,-0.14,-0.271,-0.257
-0.012,-0.153,-0.1415,0.0825,0.0645,-0.1475,0.106,0.2845,0.201,0.1975,0.0395,0.069,-0.1395,-0.2715,-0.256
-0.005,-0.147,-0.1415,0.076,0.0685,-0.1445,0.106,0.286,0.203,0.198,0.046,0.068,-0.14,-0.272,-0.2525
-0.0005,-0.1475,-0.147,0.074,0.0735,-0.147,0.106,0.2885,0.2035,0.1975,0.0515,0.0675,-0.1395,-0.2685,-0.249
-0.0195,-0.165,-0.1455,0.092,0.063,-0.155,0.1015,0.285,0.2025,0.1925,0.0475,0.0625,-0.1395,-0.2685,-0.2445
-0.0235,-0.1705,-0.1465,0.097,0.0615,-0.1585,0.098,0.281,0.2025,0.1895,0.0455,0.0605,-0.1385,-0.27,-0.2445
-0.0155,-0.1645,-0.1485,0.09,0.0665,-0.1565,0.104,0.2885,0.208,0.1955,0.0495,0.0635,-0.1395,-0.269,-0.2495
-0.018,-0.1665,-0.1485,0.0925,0.065,-0.1575,0.108,0.2955,0.212,0.1995,0.0495,0.064,-0.142,-0.273,-0.2515
-0.007,-0.1605,-0.153,0.0835,0.073,-0.157,0.1125,0.305,0.218,0.204,0.0545,0.068,-0.1425,-0.2825,-0.255
-0.006,-0.1625,-0.1565,0.084,0.0755,-0.1595,0.1105,0.306,0.217,0.2055,0.0545,0.068,-0.143,-0.2795,-0.2555
-0.0155,-0.171,-0.1555,0.0935,0.07,-0.163,0.1065,0.3025,0.2125,0.203,0.0505,0.063,-0.143,-0.275,-0.2555
-0.015,-0.1695,-0.154,0.092,0.0695,-0.162,0.11,0.305,0.213,0.204,0.0505,0.061,-0.145,-0.2825,-0.2585
-0.022,-0.1775,-0.1555,0.0995,0.067,-0.1665,0.109,0.306,0.2135,0.205,0.0495,0.06,-0.1455,-0.289,-0.263
-0.0425,-0.1965,-0.1545,0.1195,0.056,-0.1755,0.1035,0.303,0.2095,0.2005,0.0455,0.056,-0.1445,-0.291,-0.2665
-0.04,-0.196,-0.1565,0.118,0.058,-0.176,0.1035,0.3035,0.2085,0.2,0.0435,0.0565,-0.145,-0.289,-0.2665
-0.0125,-0.1695,-0.1575,0.091,0.0725,-0.1635,0.113,0.3155,0.221,0.2115,0.052,0.0665,-0.1445,-0.288,-0.268
0.0075,-0.1435,-0.151,0.068,0.0795,-0.1475,0.1195,0.3245,0.23,0.219,0.06,0.0745,-0.1425,-0.2835,-0.2665
-0.0035,-0.1525,-0.149,0.078,0.0725,-0.151,0.1165,0.321,0.2295,0.2165,0.058,0.07,-0.144,-0.28,-0.2685
-0.037,-0.1815,-0.144,0.109,0.0535,-0.163,0.108,0.3105,0.2205,0.206,0.046,0.058,-0.146,-0.2855,-0.274
-0.0605,-0.1985,-0.1375,0.1295,0.0385,-0.168,0.0975,0.303,0.2125,0.1965,0.0345,0.049,-0.1445,-0.284,-0.2765
-0.0665,-0.2045,-0.1385,0.1355,0.036,-0.1715,0.096,0.306,0.2115,0.1955,0.033,0.0465,-0.143,-0.2735,-0.2675
-0.064,-0.199,-0.1345,0.1315,0.035,-0.1665,0.1,0.308,0.2125,0.198,0.038,0.048,-0.1425,-0.2705,-0.2545
-0.0645,-0.1985,-0.1335,0.1315,0.0345,-0.166,0.0985,0.3065,0.213,0.2,0.038,0.0455,-0.1425,-0.269,-0.253
-0.0725,-0.2065,-0.134,0.1395,0.031,-0.17,0.0965,0.3075,0.2105,0.1945,0.03,0.0395,-0.146,-0.263,-0.2505
-0.069,-0.203,-0.134,0.136,0.0325,-0.1685,0.099,0.3085,0.2115,0.1935,0.0285,0.04,-0.1475,-0.264,-0.252
-0.05,-0.185,-0.135,0.1175,0.0425,-0.16,0.104,0.3155,0.217,0.201,0.034,0.048,-0.1465,-0.262,-0.2535
-0.039,-0.1725,-0.133,0.1055,0.047,-0.153,0.1085,0.324,0.2225,0.207,0.0405,0.0525,-0.147,-0.2595,-0.2505
-0.035,-0.1665,-0.1315,0.1005,0.0485,-0.149,0.1145,0.3285,0.231,0.2145,0.0475,0.0585,-0.147,-0.263,-0.2565
-0.024,-0.154,-0.1305,0.089,0.0535,-0.1425,0.122,0.3385,0.24,0.2225,0.0565,0.066,-0.1465,-0.258,-0.2575
0.0,-0.138,-0.1385,0.069,0.069,-0.138,0.1295,0.347,0.248,0.23,0.0625,0.071,-0.148,-0.267,-0.2645
0.0245,-0.12,-0.1445,0.048,0.0845,-0.1325,0.136,0.352,0.254,0.234,0.0645,0.0745,-0.1505,-0.283,-0.271
0.026,-0.1155,-0.1415,0.045,0.084,-0.1285,0.1375,0.3525,0.2555,0.236,0.066,0.0745,-0.1515,-0.2775,-0.265
0.0255,-0.121,-0.1465,0.048,0.086,-0.134,0.1355,0.352,0.255,0.2345,0.0635,0.073,-0.1505,-0.273,-0.262
0.0315,-0.1195,-0.1515,0.044,0.0915,-0.1355,0.134,0.354,0.2545,0.236,0.064,0.074,-0.1465,-0.2775,-0.2645
0.0185,-0.1275,-0.146,0.0545,0.0825,-0.1365,0.1305,0.3515,0.2535,0.2355,0.061,0.0695,-0.1475,-0.2825,-0.274
-0.004,-0.1465,-0.1425,0.075,0.0695,-0.1445,0.127,0.352,0.252,0.2315,0.0555,0.063,-0.1495,-0.2915,-0.278
0.0015,-0.1415,-0.143,0.07,0.072,-0.142,0.1275,0.3555,0.2535,0.232,0.054,0.065,-0.148,-0.291,-0.2835
0.022,-0.122,-0.144,0.05,0.0835,-0.133,0.132,0.3595,0.259,0.2365,0.0585,0.07,-0.149,-0.2825,-0.2885
0.007,-0.1365,-0.1435,0.065,0.075,-0.14,0.129,0.356,0.256,0.2335,0.056,0.066,-0.1485,-0.284,-0.2865
-0.025,-0.1635,-0.1385,0.0945,0.0565,-0.151,0.119,0.346,0.2465,0.2225,0.042,0.054,-0.1495,-0.2845,-0.288
-0.039,-0.1775,-0.1385,0.1085,0.05,-0.158,0.114,0.341,0.2385,0.216,0.0355,0.046,-0.1505,-0.278,-0.2815
-0.038,-0.176,-0.1375,0.107,0.0495,-0.157,0.1155,0.345,0.2425,0.219,0.0365,0.046,-0.151,-0.2775,-0.2835
-0.0265,-0.1585,-0.1325,0.0925,0.053,-0.1455,0.118,0.353,0.25,0.225,0.0405,0.0485,-0.152,-0.271,-0.2875
-0.019,-0.149,-0.13,0.084,0.0555,-0.1395,0.1195,0.358,0.253,0.2265,0.042,0.0505,-0.153,-0.258,-0.281
-0.01,-0.141,-0.131,0.0755,0.061,-0.136,0.1255,0.3635,0.2595,0.2305,0.0465,0.052,-0.157,-0.26,-0.2775
-0.007,-0.1415,-0.135,0.074,0.064,-0.138,0.1255,0.364,0.2615,0.231,0.047,0.0495,-0.156,-0.2645,-0.2785
