i,ii,iii,avr,avl,avf,v1,v2,v3,v4,v5,v6,vx,vy,vz
-0.1955,0.218,0.4135,-0.011,-0.3045,0.316,0.417,0.4545,0.472,0.4535,0.389,0.392,-0.1205,-0.0515,-0.4535
-0.212,0.223,0.435,-0.005,-0.3235,0.329,0.425,0.463,0.476,0.454,0.392,0.3945,-0.1225,-0.0465,-0.4555
-0.207,0.229,0.436,-0.011,-0.3215,0.3325,0.4275,0.4645,0.4785,0.4555,0.394,0.3935,-0.124,-0.0365,-0.4605
-0.2,0.225,0.4245,-0.0125,-0.312,0.325,0.4225,0.457,0.469,0.4445,0.3855,0.3815,-0.132,-0.0425,-0.4625
-0.1925,0.2235,0.416,-0.0155,-0.304,0.32,0.423,0.4545,0.464,0.439,0.378,0.373,-0.137,-0.0455,-0.4645
-0.1995,0.221,0.421,-0.0105,-0.31,0.321,0.4295,0.458,0.465,0.44,0.379,0.3705,-0.139,-0.042,-0.4685
-0.2115,0.211,0.4225,0.0005,-0.317,0.317,0.4315,0.4595,0.466,0.44,0.379,0.366,-0.145,-0.0565,-0.474
-0.214,0.208,0.422,0.003,-0.318,0.315,0.4385,0.464,0.467,0.44,0.376,0.364,-0.1465,-0.058,-0.479
-0.217,0.2085,0.4255,0.0045,-0.3215,0.3175,0.4415,0.4635,0.4665,0.4375,0.3715,0.3565,-0.1525,-0.052,-0.479
-0.2205,0.205,0.4255,0.008,-0.323,0.316,0.44,0.461,0.4635,0.4345,0.3725,0.3545,-0.1555,-0.058,-0.4775
-0.2245,0.2,0.4245,0.0125,-0.3245,0.3125,0.439,0.453,0.4565,0.428,0.3685,0.351,-0.1575,-0.062,-0.4745
-0.2195,0.1995,0.4185,0.0105,-0.319,0.309,0.441,0.4505,0.454,0.4245,0.3605,0.343,-0.1635,-0.069,-0.472
-0.217,0.1995,0.416,0.009,-0.3165,0.308,0.4435,0.4545,0.4565,0.428,0.363,0.3445,-0.1585,-0.074,-0.47
-0.218,0.1945,0.4125,0.012,-0.315,0.3035,0.4405,0.449,0.452,0.421,0.3585,0.345,-0.1575,-0.0765,-0.467
-0.216,0.193,0.409,0.012,-0.3125,0.3015,0.442,0.448,0.4495,0.417,0.354,0.3425,-0.164,-0.073,-0.4685
-0.2115,0.1945,0.406,0.009,-0.3085,0.3005,0.441,0.4455,0.4475,0.4175,0.35,0.341,-0.166,-0.0755,-0.4685
-0.2085,0.193,0.401,0.008,-0.3045,0.2975,0.442,0.445,0.445,0.414,0.344,0.3405,-0.166,-0.0805,-0.468
-0.207,0.1935,0.4005,0.007,-0.304,0.2975,0.444,0.4475,0.4485,0.4175,0.3465,0.3425,-0.164,-0.077,-0.4665
-0.2125,0.184,0.3965,0.0145,-0.3045,0.2905,0.441,0.445,0.4445,0.4145,0.348,0.3465,-0.1595,-0.0795,-0.4625
-0.223,0.1725,0.395,0.0255,-0.309,0.284,0.439,0.4435,0.4455,0.4135,0.3495,0.3475,-0.1545,-0.0785,-0.4625
-0.225,0.1735,0.3985,0.026,-0.312,0.2865,0.444,0.4445,0.4465,0.4135,0.348,0.345,-0.155,-0.074,-0.4675
-0.22,0.1845,0.404,0.018,-0.312,0.2945,0.4425,0.448,0.447,0.416,0.355,0.35,-0.151,-0.066,-0.4685
-0.214,0.192,0.4055,0.011,-0.3095,0.299,0.4365,0.4495,0.451,0.422,0.361,0.3555,-0.1485,-0.07,-0.4635
-0.2175,0.1925,0.41,0.013,-0.314,0.3015,0.4435,0.449,0.449,0.421,0.36,0.353,-0.153,-0.077,-0.464
-0.2145,0.192,0.4065,0.0115,-0.3105,0.2995,0.441,0.45,0.45,0.422,0.361,0.3545,-0.1515,-0.075,-0.462
-0.211,0.1895,0.4005,0.011,-0.3055,0.295,0.4395,0.4505,0.4505,0.422,0.359,0.359,-0.1475,-0.079,-0.4595
-0.217,0.1945,0.4115,0.0115,-0.314,0.303,0.4445,0.455,0.451,0.424,0.362,0.3585,-0.145,-0.072,-0.463
-0.215,0.1945,0.4095,0.0105,-0.3125,0.3025,0.4375,0.456,0.452,0.4235,0.3635,0.354,-0.148,-0.065,-0.464
-0.207,0.1925,0.3995,0.0075,-0.303,0.296,0.432,0.45,0.4465,0.418,0.357,0.3515,-0.1475,-0.0675,-0.462
-0.203,0.1935,0.3965,0.005,-0.3,0.295,0.4315,0.45,0.444,0.418,0.3575,0.3525,-0.1445,-0.072,-0.464
-0.206,0.1925,0.3985,0.007,-0.302,0.296,0.429,0.4475,0.443,0.417,0.3595,0.3535,-0.141,-0.0725,-0.463
-0.21,0.1925,0.4025,0.009,-0.3065,0.298,0.4285,0.447,0.444,0.4165,0.356,0.3545,-0.141,-0.073,-0.4595
-0.216,0.19,0.4055,0.013,-0.311,0.298,0.4315,0.449,0.448,0.4205,0.3595,0.355,-0.1485,-0.078,-0.465
-0.2165,0.195,0.4115,0.011,-0.314,0.3035,0.4375,0.449,0.449,0.422,0.3595,0.3565,-0.147,-0.068,-0.4665
-0.2115,0.199,0.4105,0.006,-0.311,0.305,0.4395,0.452,0.452,0.4245,0.3595,0.358,-0.146,-0.0635,-0.467
-0.21,0.197,0.407,0.0065,-0.3085,0.3025,0.436,0.4475,0.4495,0.4225,0.363,0.3565,-0.1505,-0.0705,-0.4695
-0.211,0.1965,0.4075,0.0075,-0.3095,0.3025,0.434,0.4455,0.4475,0.421,0.3625,0.355,-0.149,-0.0705,-0.4695
-0.214,0.198,0.4115,0.0085,-0.313,0.305,0.4325,0.4465,0.45,0.4215,0.3625,0.354,-0.1495,-0.0655,-0.4665
-0.2185,0.197,0.415,0.011,-0.3165,0.306,0.4375,0.447,0.4495,0.4215,0.361,0.355,-0.1505,-0.0645,-0.4635
-0.2165,0.1925,0.4095,0.0125,-0.313,0.301,0.44,0.4495,0.451,0.4255,0.3625,0.3575,-0.1475,-0.073,-0.4655
-0.213,0.196,0.409,0.0085,-0.311,0.303,0.4395,0.4525,0.4535,0.426,0.364,0.356,-0.148,-0.071,-0.4685
-0.2145,0.1995,0.414,0.008,-0.3145,0.307,0.439,0.453,0.455,0.43,0.367,0.359,-0.147,-0.067,-0.469
-0.216,0.196,0.412,0.0105,-0.3145,0.3045,0.4345,0.448,0.453,0.4285,0.368,0.3575,-0.1465,-0.0735,-0.463
-0.2145,0.1955,0.41,0.0095,-0.312,0.303,0.434,0.4475,0.453,0.426,0.368,0.3535,-0.148,-0.0735,-0.4635
-0.2145,0.197,0.4115,0.009,-0.313,0.3045,0.437,0.452,0.456,0.43,0.373,0.3555,-0.144,-0.07,-0.467
-0.218,0.192,0.41,0.0135,-0.314,0.301,0.44,0.453,0.456,0.4285,0.3685,0.352,-0.1465,-0.073,-0.4665
-0.22,0.192,0.412,0.0145,-0.316,0.302,0.4355,0.4545,0.4585,0.4285,0.3675,0.3515,-0.148,-0.0715,-0.4675
-0.2165,0.1935,0.4105,0.012,-0.3135,0.3025,0.4325,0.4535,0.4545,0.426,0.369,0.352,-0.1445,-0.0705,-0.466
-0.212,0.1975,0.4095,0.0075,-0.3105,0.3035,0.4345,0.451,0.4545,0.428,0.37,0.353,-0.145,-0.069,-0.466
-0.2115,0.2005,0.412,0.0055,-0.3115,0.3065,0.4365,0.452,0.4515,0.4255,0.3665,0.349,-0.1515,-0.0595,-0.4685
-0.2125,0.198,0.4105,0.0075,-0.3115,0.3045,0.4385,0.4565,0.4525,0.425,0.3665,0.353,-0.149,-0.061,-0.469
-0.2075,0.202,0.41,0.003,-0.3085,0.3065,0.442,0.4625,0.4635,0.437,0.376,0.364,-0.1385,-0.0655,-0.468
-0.206,0.2055,0.4115,0.0005,-0.309,0.309,0.4435,0.4625,0.46,0.433,0.372,0.3605,-0.1425,-0.063,-0.4675
-0.21,0.206,0.416,0.002,-0.313,0.3115,0.443,0.4615,0.4585,0.431,0.371,0.3595,-0.1445,-0.0675,-0.4685
-0.21,0.2055,0.416,0.0025,-0.313,0.311,0.4425,0.466,0.461,0.4345,0.372,0.361,-0.144,-0.073,-0.4705
-0.21,0.2085,0.419,0.001,-0.3145,0.314,0.4425,0.4705,0.4635,0.4345,0.371,0.3615,-0.142,-0.064,-0.471
-0.205,0.206,0.4105,0.0,-0.308,0.3085,0.4405,0.4625,0.4585,0.4305,0.369,0.359,-0.143,-0.0635,-0.47
-0.203,0.202,0.405,0.0005,-0.304,0.304,0.436,0.4535,0.4515,0.424,0.366,0.3575,-0.1465,-0.066,-0.47
-0.2105,0.205,0.4155,0.003,-0.3125,0.3105,0.44,0.4605,0.4605,0.4305,0.3705,0.3615,-0.145,-0.0655,-0.4705
-0.2135,0.2035,0.4175,0.005,-0.3155,0.3105,0.4445,0.4645,0.463,0.434,0.373,0.358,-0.148,-0.0705,-0.4715
-0.209,0.2065,0.4155,0.0015,-0.312,0.311,0.443,0.4635,0.4605,0.43,0.3695,0.3565,-0.1485,-0.0665,-0.4715
-0.201,0.206,0.407,-0.0025,-0.304,0.307,0.437,0.4545,0.454,0.425,0.364,0.355,-0.1485,-0.0625,-0.469
-0.201,0.208,0.409,-0.003,-0.305,0.3085,0.435,0.451,0.454,0.427,0.368,0.352,-0.1505,-0.0605,-0.469
-0.2065,0.21,0.4165,-0.0015,-0.3115,0.3135,0.439,0.4575,0.4625,0.433,0.3705,0.358,-0.1495,-0.06,-0.473
-0.204,0.208,0.412,-0.002,-0.308,0.3105,0.4375,0.452,0.4565,0.4275,0.3695,0.3575,-0.1485,-0.0585,-0.4705
-0.2,0.211,0.411,-0.005,-0.3055,0.311,0.4375,0.4545,0.457,0.429,0.371,0.3585,-0.1455,-0.053,-0.4655
-0.21,0.206,0.416,0.002,-0.3125,0.311,0.4395,0.4575,0.457,0.4295,0.369,0.3585,-0.152,-0.058,-0.472
-0.212,0.2065,0.4185,0.003,-0.315,0.3125,0.4425,0.462,0.4585,0.427,0.3675,0.3555,-0.1525,-0.056,-0.4755
-0.2065,0.2115,0.418,-0.002,-0.3125,0.315,0.4425,0.4605,0.46,0.43,0.367,0.3575,-0.1475,-0.0545,-0.475
-0.2075,0.2095,0.417,-0.0005,-0.3125,0.3135,0.442,0.455,0.455,0.428,0.366,0.354,-0.1515,-0.0595,-0.473
-0.2025,0.213,0.4155,-0.005,-0.309,0.3145,0.4415,0.464,0.461,0.43,0.368,0.355,-0.1505,-0.056,-0.472
-0.204,0.213,0.417,-0.0045,-0.3105,0.315,0.4435,0.4655,0.462,0.432,0.369,0.356,-0.151,-0.064,-0.4745
-0.21,0.2115,0.421,-0.0005,-0.3155,0.3165,0.449,0.4625,0.458,0.4305,0.37,0.3555,-0.1525,-0.068,-0.4725
-0.21,0.215,0.4255,-0.002,-0.318,0.3205,0.4455,0.467,0.4625,0.434,0.372,0.3575,-0.152,-0.058,-0.474
-0.2135,0.2135,0.427,0.0,-0.32,0.3205,0.4445,0.472,0.466,0.4395,0.375,0.36,-0.1495,-0.0605,-0.4765
-0.2075,0.211,0.4185,-0.001,-0.313,0.3145,0.4435,0.4645,0.4605,0.435,0.3705,0.3565,-0.15,-0.067,-0.4775
-0.2075,0.2095,0.417,-0.0005,-0.312,0.3135,0.448,0.464,0.457,0.433,0.3685,0.3575,-0.1505,-0.0655,-0.476
-0.2145,0.209,0.4235,0.003,-0.319,0.3165,0.449,0.4665,0.4595,0.436,0.3725,0.36,-0.1485,-0.0575,-0.476
-0.2135,0.2095,0.423,0.002,-0.3185,0.3165,0.444,0.468,0.4645,0.437,0.3715,0.3585,-0.1475,-0.053,-0.4775
-0.214,0.2085,0.4225,0.003,-0.3185,0.316,0.447,0.467,0.463,0.4365,0.373,0.3595,-0.1455,-0.054,-0.4765
-0.212,0.21,0.4215,0.001,-0.3165,0.316,0.444,0.467,0.461,0.436,0.3735,0.361,-0.145,-0.052,-0.4735
-0.215,0.212,0.4265,0.0015,-0.3205,0.3195,0.4455,0.4705,0.465,0.4405,0.376,0.3635,-0.1445,-0.055,-0.4735
-0.2215,0.2125,0.434,0.0045,-0.3275,0.3235,0.4495,0.466,0.463,0.439,0.3805,0.36,-0.1485,-0.06,-0.477
-0.2125,0.2145,0.427,-0.0005,-0.3195,0.321,0.448,0.465,0.461,0.438,0.38,0.3585,-0.1495,-0.0585,-0.474
-0.203,0.2165,0.4195,-0.0065,-0.3115,0.3185,0.444,0.463,0.4605,0.4365,0.372,0.3615,-0.1455,-0.054,-0.472
-0.2005,0.2165,0.417,-0.0075,-0.309,0.317,0.444,0.4665,0.4625,0.437,0.372,0.363,-0.144,-0.0555,-0.4725
-0.2195,0.215,0.4345,0.0025,-0.327,0.3255,0.451,0.4765,0.469,0.445,0.3815,0.3705,-0.144,-0.0585,-0.476
-0.243,0.2115,0.4545,0.016,-0.349,0.333,0.453,0.4815,0.473,0.4495,0.3855,0.3715,-0.144,-0.057,-0.4785
-0.22,0.213,0.433,0.0035,-0.3265,0.323,0.444,0.4715,0.464,0.4405,0.3745,0.3585,-0.145,-0.0575,-0.4735
-0.203,0.212,0.415,-0.0045,-0.309,0.314,0.4335,0.461,0.4565,0.433,0.3685,0.3535,-0.1445,-0.0615,-0.4715
-0.207,0.21,0.417,-0.001,-0.312,0.3135,0.435,0.4635,0.4595,0.4345,0.3705,0.354,-0.146,-0.061,-0.4745
-0.2035,0.2155,0.419,-0.0055,-0.3115,0.3175,0.441,0.467,0.4625,0.437,0.374,0.3545,-0.147,-0.056,-0.476
-0.208,0.216,0.424,-0.0035,-0.316,0.3205,0.4445,0.4705,0.467,0.4405,0.3785,0.3595,-0.1435,-0.055,-0.477
-0.2075,0.219,0.4265,-0.0055,-0.317,0.323,0.4405,0.47,0.4685,0.4405,0.377,0.359,-0.1395,-0.05,-0.4775
-0.206,0.2225,0.428,-0.008,-0.317,0.3255,0.4375,0.47,0.47,0.444,0.38,0.3605,-0.1385,-0.045,-0.4795
-0.2015,0.226,0.4275,-0.012,-0.3145,0.327,0.4345,0.471,0.4705,0.444,0.38,0.3605,-0.1395,-0.0445,-0.482
-0.191,0.231,0.422,-0.02,-0.3065,0.3265,0.429,0.467,0.469,0.4435,0.38,0.3585,-0.1375,-0.042,-0.4765
-0.1945,0.229,0.423,-0.017,-0.3085,0.3265,0.4325,0.4625,0.4665,0.442,0.3775,0.356,-0.1415,-0.044,-0.4735
-0.1975,0.229,0.4265,-0.016,-0.312,0.328,0.434,0.469,0.471,0.446,0.3865,0.3625,-0.137,-0.048,-0.4745
-0.1955,0.23,0.425,-0.017,-0.31,0.3275,0.438,0.4725,0.4765,0.451,0.3925,0.37,-0.1335,-0.05,-0.473
-0.2015,0.2325,0.4345,-0.015,-0.318,0.334,0.4425,0.4735,0.477,0.449,0.377,0.3665,-0.14,-0.04,-0.4735
-0.209,0.234,0.443,-0.012,-0.326,0.339,0.4445,0.481,0.484,0.455,0.3825,0.3695,-0.139,-0.0335,-0.4795
-0.2075,0.2335,0.4405,-0.0125,-0.324,0.3375,0.4455,0.48,0.4825,0.454,0.3825,0.368,-0.1395,-0.036,-0.479
-0.2035,0.2345,0.438,-0.0155,-0.321,0.337,0.4445,0.482,0.4845,0.4545,0.3815,0.37,-0.137,-0.0365,-0.4765
-0.206,0.2325,0.438,-0.013,-0.322,0.3355,0.4445,0.486,0.4945,0.462,0.3945,0.375,-0.1315,-0.0365,-0.478
-0.2025,0.233,0.4355,-0.015,-0.319,0.3345,0.4505,0.4935,0.5,0.464,0.393,0.378,-0.1275,-0.0305,-0.479
-0.1995,0.236,0.4355,-0.018,-0.3175,0.336,0.476,0.5215,0.5195,0.4755,0.3985,0.381,-0.1245,-0.0265,-0.493
-0.1945,0.242,0.4365,-0.0235,-0.3155,0.3395,0.4995,0.5685,0.556,0.503,0.4175,0.3865,-0.1115,-0.027,-0.5125
-0.1945,0.246,0.4405,-0.026,-0.3175,0.3435,0.5325,0.626,0.5995,0.529,0.4335,0.3975,-0.1035,-0.026,-0.5395
-0.192,0.249,0.441,-0.0285,-0.3165,0.345,0.5845,0.6825,0.6475,0.5565,0.4455,0.4025,-0.0985,-0.024,-0.57
-0.18,0.2595,0.4395,-0.0395,-0.3095,0.3495,0.6265,0.735,0.6955,0.5905,0.4645,0.4135,-0.081,-0.023,-0.5905
-0.1685,0.2695,0.4385,-0.05,-0.3035,0.3545,0.6565,0.788,0.7495,0.6275,0.49,0.4285,-0.061,-0.013,-0.6075
-0.1575,0.27,0.4275,-0.056,-0.2925,0.349,0.6855,0.8415,0.8005,0.662,0.508,0.4415,-0.0455,-0.011,-0.627
-0.1535,0.268,0.4215,-0.057,-0.2875,0.345,0.7105,0.896,0.8535,0.7025,0.5325,0.4565,-0.031,-0.0155,-0.6445
-0.1425,0.273,0.4155,-0.065,-0.279,0.3445,0.7285,0.9625,0.9255,0.7555,0.566,0.4805,-0.002,-0.009,-0.662
-0.1385,0.2875,0.4255,-0.074,-0.282,0.3565,0.7465,1.015,0.99,0.803,0.595,0.5055,0.025,-0.001,-0.679
-0.1305,0.3135,0.444,-0.091,-0.2875,0.379,0.756,1.0435,1.037,0.8435,0.6295,0.528,0.0445,0.013,-0.6885
-0.118,0.3295,0.4475,-0.1055,-0.283,0.3885,0.755,1.059,1.072,0.8735,0.6545,0.544,0.0615,0.027,-0.693
-0.1155,0.3365,0.452,-0.1105,-0.284,0.3945,0.751,1.054,1.092,0.8915,0.666,0.5475,0.0685,0.0345,-0.6925
-0.1075,0.347,0.4545,-0.1195,-0.281,0.401,0.74,1.036,1.094,0.904,0.6805,0.56,0.076,0.0365,-0.6885
-0.1055,0.36,0.4655,-0.127,-0.2855,0.413,0.708,1.008,1.0925,0.9175,0.697,0.576,0.087,0.0445,-0.679
-0.11,0.361,0.4715,-0.125,-0.291,0.4165,0.643,0.916,1.045,0.9,0.6985,0.577,0.0915,0.047,-0.645
-0.113,0.361,0.474,-0.1235,-0.2935,0.4175,0.5505,0.8015,0.9805,0.8775,0.7,0.5795,0.0935,0.041,-0.597
-0.099,0.374,0.473,-0.137,-0.286,0.4235,0.444,0.7105,0.94,0.872,0.7065,0.5845,0.1025,0.0445,-0.5505
-0.08,0.386,0.466,-0.153,-0.273,0.4265,0.3275,0.593,0.873,0.853,0.715,0.6005,0.121,0.0525,-0.4945
-0.0725,0.4175,0.49,-0.172,-0.2815,0.454,0.2175,0.485,0.819,0.85,0.7395,0.6295,0.144,0.0715,-0.445
-0.059,0.4495,0.5085,-0.195,-0.284,0.4795,0.13,0.393,0.78,0.8545,0.7645,0.6495,0.165,0.0955,-0.41
-0.037,0.484,0.5215,-0.2235,-0.279,0.503,0.0565,0.3035,0.739,0.853,0.785,0.6665,0.1795,0.1245,-0.3855
-0.0245,0.5385,0.563,-0.257,-0.294,0.551,-0.0095,0.197,0.6745,0.836,0.799,0.6825,0.184,0.166,-0.3575
-0.0255,0.5835,0.609,-0.279,-0.3175,0.5965,-0.089,0.0755,0.597,0.8135,0.814,0.7,0.1915,0.2055,-0.3205
-0.018,0.6335,0.6515,-0.3075,-0.335,0.643,-0.1995,-0.0585,0.513,0.789,0.829,0.7235,0.209,0.245,-0.2715
-0.005,0.6875,0.6925,-0.341,-0.349,0.69,-0.323,-0.218,0.4095,0.7565,0.852,0.7545,0.2305,0.286,-0.2105
0.012,0.739,0.727,-0.375,-0.358,0.7335,-0.4485,-0.335,0.356,0.7615,0.894,0.7905,0.264,0.3275,-0.163
0.0385,0.7895,0.7505,-0.4135,-0.356,0.77,-0.569,-0.421,0.3285,0.7825,0.9365,0.83,0.3075,0.3645,-0.1245
0.0585,0.837,0.7785,-0.4475,-0.36,0.808,-0.697,-0.5345,0.2745,0.7885,0.9805,0.8725,0.3505,0.3945,-0.075
0.0795,0.89,0.8105,-0.4845,-0.3655,0.8505,-0.834,-0.6565,0.205,0.7865,1.0205,0.9155,0.39,0.4345,-0.0195
0.103,0.938,0.835,-0.5205,-0.366,0.887,-0.959,-0.7615,0.1435,0.7905,1.0625,0.96,0.433,0.4715,0.025
0.1225,0.998,0.875,-0.56,-0.376,0.937,-1.0955,-0.8635,0.099,0.806,1.121,1.011,0.48,0.5145,0.074
0.1375,1.056,0.9185,-0.5965,-0.3905,0.987,-1.2335,-0.9695,0.05,0.818,1.1695,1.0645,0.5205,0.557,0.132
0.162,1.103,0.941,-0.632,-0.3895,1.022,-1.373,-1.0845,-0.0045,0.8185,1.1995,1.102,0.5515,0.5935,0.1945
0.205,1.1595,0.9545,-0.682,-0.375,1.057,-1.5285,-1.18,-0.042,0.8315,1.244,1.1485,0.599,0.635,0.2555
0.2395,1.197,0.958,-0.718,-0.359,1.0775,-1.663,-1.2495,-0.071,0.8505,1.292,1.1965,0.652,0.6565,0.304
0.2725,1.205,0.9325,-0.7385,-0.33,1.069,-1.7735,-1.2925,-0.087,0.877,1.334,1.2345,0.7,0.654,0.3455
0.3095,1.201,0.8915,-0.755,-0.291,1.0465,-1.8845,-1.321,-0.092,0.911,1.376,1.2805,0.7585,0.638,0.3915
0.344,1.205,0.861,-0.774,-0.2585,1.033,-1.989,-1.377,-0.1275,0.919,1.405,1.315,0.8055,0.6335,0.4435
0.379,1.202,0.823,-0.79,-0.222,1.013,-2.0675,-1.421,-0.1575,0.931,1.436,1.348,0.851,0.63,0.486
0.408,1.197,0.789,-0.802,-0.19,0.993,-2.118,-1.4595,-0.1855,0.9375,1.457,1.38,0.89,0.6195,0.519
0.427,1.2285,0.8015,-0.8275,-0.187,1.015,-2.162,-1.5295,-0.2305,0.932,1.489,1.416,0.922,0.639,0.5515
0.445,1.266,0.821,-0.8555,-0.188,1.044,-2.207,-1.603,-0.291,0.9115,1.516,1.4505,0.9565,0.6695,0.586
0.4645,1.294,0.83,-0.879,-0.1825,1.062,-2.242,-1.684,-0.369,0.868,1.5125,1.465,0.972,0.6895,0.6265
0.475,1.3205,0.846,-0.8975,-0.1855,1.0835,-2.2715,-1.7585,-0.432,0.8435,1.5315,1.491,0.9915,0.7085,0.6585
0.4805,1.347,0.866,-0.9135,-0.1925,1.1065,-2.283,-1.8055,-0.4875,0.8155,1.5495,1.51,1.005,0.728,0.6765
0.4915,1.38,0.8885,-0.9355,-0.1985,1.1345,-2.2915,-1.842,-0.5335,0.793,1.563,1.534,1.028,0.7525,0.695
0.509,1.4055,0.8965,-0.957,-0.1935,1.151,-2.329,-1.9045,-0.5955,0.764,1.5775,1.567,1.0605,0.7795,0.7205
0.524,1.4315,0.9075,-0.9775,-0.192,1.1695,-2.3695,-1.976,-0.6715,0.724,1.5845,1.588,1.0775,0.7985,0.7525
0.5455,1.4665,0.921,-1.006,-0.1875,1.194,-2.398,-2.0235,-0.727,0.698,1.6035,1.614,1.106,0.8185,0.7775
0.5645,1.482,0.9175,-1.023,-0.1765,1.2,-2.403,-2.0545,-0.777,0.6635,1.609,1.628,1.123,0.8295,0.7905
0.552,1.476,0.924,-1.014,-0.186,1.2005,-2.3975,-2.103,-0.8395,0.6185,1.6015,1.635,1.1195,0.8335,0.815
0.55,1.4785,0.929,-1.014,-0.1895,1.204,-2.411,-2.1645,-0.9125,0.566,1.5995,1.6425,1.1265,0.8435,0.845
0.564,1.4805,0.9165,-1.022,-0.1765,1.1985,-2.4165,-2.196,-0.9625,0.5315,1.5955,1.657,1.142,0.8375,0.866
0.575,1.4685,0.8935,-1.0215,-0.1595,1.1815,-2.417,-2.2215,-1.015,0.4895,1.578,1.662,1.145,0.8205,0.888
0.581,1.448,0.867,-1.0145,-0.143,1.158,-2.4125,-2.2495,-1.0765,0.4365,1.555,1.6515,1.1405,0.8035,0.9065
0.5805,1.4345,0.854,-1.007,-0.137,1.1445,-2.409,-2.279,-1.1325,0.3915,1.5405,1.6535,1.141,0.796,0.9285
0.583,1.4235,0.8405,-1.003,-0.129,1.1325,-2.4075,-2.3115,-1.1945,0.338,1.519,1.6535,1.135,0.792,0.946
0.58,1.3995,0.8195,-0.9895,-0.12,1.11,-2.3905,-2.348,-1.275,0.261,1.477,1.638,1.1115,0.781,0.9635
0.575,1.3705,0.7955,-0.9725,-0.11,1.0835,-2.361,-2.3785,-1.361,0.172,1.4235,1.612,1.079,0.7615,0.981
0.552,1.346,0.794,-0.9485,-0.121,1.07,-2.3355,-2.393,-1.426,0.101,1.38,1.592,1.055,0.75,0.991
0.5245,1.332,0.8075,-0.928,-0.1415,1.07,-2.321,-2.417,-1.4835,0.038,1.3505,1.5815,1.04,0.7545,1.0065
0.5095,1.323,0.813,-0.916,-0.1515,1.0685,-2.304,-2.4445,-1.5475,-0.033,1.306,1.563,1.0095,0.753,1.0175
0.4985,1.3075,0.8095,-0.9025,-0.1555,1.0585,-2.2775,-2.4705,-1.6145,-0.112,1.255,1.5405,0.974,0.742,1.028
0.4975,1.29,0.7925,-0.8935,-0.1475,1.0415,-2.2535,-2.493,-1.6815,-0.189,1.212,1.5195,0.951,0.7325,1.042
0.4915,1.2765,0.7845,-0.8835,-0.1465,1.0305,-2.2395,-2.515,-1.7385,-0.253,1.1765,1.5075,0.937,0.7245,1.0625
0.478,1.2515,0.7735,-0.8645,-0.1475,1.0125,-2.2195,-2.5235,-1.771,-0.299,1.1495,1.496,0.9245,0.706,1.0715
0.465,1.219,0.754,-0.842,-0.1445,0.987,-2.1845,-2.5145,-1.7955,-0.341,1.12,1.483,0.907,0.6875,1.068
0.451,1.1845,0.7335,-0.8175,-0.1415,0.9595,-2.146,-2.5235,-1.842,-0.402,1.08,1.4605,0.884,0.66,1.075
0.446,1.1485,0.7025,-0.797,-0.1285,0.9255,-2.111,-2.529,-1.896,-0.466,1.033,1.437,0.8585,0.631,1.078
0.437,1.117,0.68,-0.7765,-0.1215,0.8985,-2.071,-2.5275,-1.931,-0.5175,0.998,1.424,0.839,0.611,1.0785
0.42,1.0755,0.6555,-0.7475,-0.1175,0.8655,-2.02,-2.5115,-1.955,-0.5655,0.9615,1.3965,0.8105,0.585,1.0705
0.405,1.043,0.638,-0.724,-0.1165,0.8405,-1.966,-2.472,-1.9555,-0.5935,0.9375,1.3815,0.7945,0.568,1.0515
0.393,1.014,0.621,-0.7035,-0.114,0.818,-1.9115,-2.4425,-1.953,-0.6175,0.9215,1.3735,0.784,0.549,1.04
0.3825,0.9715,0.5885,-0.6765,-0.103,0.78,-1.845,-2.382,-1.9315,-0.623,0.9125,1.3675,0.7765,0.5125,1.0205
0.375,0.9315,0.5565,-0.653,-0.0905,0.744,-1.7775,-2.305,-1.875,-0.595,0.9245,1.374,0.785,0.483,0.9915
0.3735,0.8755,0.502,-0.624,-0.064,0.689,-1.7145,-2.2385,-1.83,-0.574,0.925,1.37,0.785,0.4395,0.9675
0.3645,0.8185,0.454,-0.5915,-0.045,0.6365,-1.6605,-2.188,-1.8015,-0.57,0.9185,1.363,0.781,0.3875,0.951
0.351,0.774,0.4235,-0.562,-0.0365,0.599,-1.5975,-2.124,-1.7505,-0.5495,0.92,1.3615,0.779,0.3525,0.927
0.334,0.7305,0.396,-0.532,-0.031,0.5635,-1.524,-2.041,-1.6815,-0.5165,0.927,1.36,0.773,0.322,0.891
0.327,0.7055,0.3785,-0.516,-0.026,0.5425,-1.46,-1.982,-1.634,-0.4975,0.936,1.3615,0.767,0.304,0.862
0.3265,0.675,0.348,-0.5005,-0.0105,0.512,-1.3875,-1.892,-1.556,-0.453,0.9575,1.369,0.7725,0.28,0.8265
0.311,0.622,0.311,-0.466,0.0,0.4665,-1.304,-1.7785,-1.452,-0.389,0.9785,1.372,0.7755,0.241,0.7815
0.3025,0.5745,0.2715,-0.438,0.0155,0.423,-1.233,-1.685,-1.365,-0.334,0.994,1.374,0.7765,0.205,0.745
0.3015,0.527,0.2255,-0.414,0.038,0.3765,-1.175,-1.608,-1.2955,-0.2955,1.004,1.375,0.7795,0.1695,0.7195
0.298,0.471,0.173,-0.384,0.0625,0.322,-1.1075,-1.5325,-1.241,-0.2735,0.9915,1.362,0.767,0.1265,0.6955
0.2885,0.416,0.1275,-0.352,0.0805,0.272,-1.043,-1.451,-1.17,-0.2325,0.9985,1.362,0.7665,0.087,0.666
0.276,0.378,0.1015,-0.327,0.087,0.24,-0.985,-1.3755,-1.094,-0.1765,1.0345,1.385,0.783,0.0655,0.635
0.2815,0.331,0.0495,-0.306,0.116,0.1905,-0.928,-1.2925,-1.017,-0.117,1.067,1.405,0.802,0.0285,0.606
0.279,0.2785,-0.0005,-0.2785,0.14,0.1395,-0.8685,-1.212,-0.9475,-0.074,1.076,1.412,0.807,-0.015,0.5755
0.2675,0.252,-0.016,-0.2595,0.142,0.118,-0.8135,-1.156,-0.9045,-0.059,1.072,1.406,0.7955,-0.0375,0.551
0.2715,0.211,-0.0605,-0.241,0.166,0.0755,-0.768,-1.091,-0.8525,-0.032,1.064,1.3995,0.7945,-0.0625,0.53
0.265,0.1825,-0.0825,-0.2235,0.1735,0.05,-0.715,-1.0155,-0.784,0.0085,1.0685,1.4045,0.797,-0.075,0.504
0.2435,0.1815,-0.0615,-0.2125,0.1525,0.06,-0.67,-0.9615,-0.7315,0.035,1.081,1.412,0.797,-0.0735,0.476
0.227,0.1655,-0.061,-0.196,0.144,0.0525,-0.6165,-0.899,-0.676,0.0645,1.086,1.416,0.7915,-0.082,0.444
0.2065,0.15,-0.0565,-0.178,0.1315,0.047,-0.5585,-0.8255,-0.6095,0.1005,1.0905,1.41,0.778,-0.0855,0.411
0.194,0.125,-0.0695,-0.159,0.1315,0.028,-0.5115,-0.7615,-0.555,0.1265,1.0865,1.4,0.768,-0.103,0.3805
0.1955,0.0965,-0.099,-0.1455,0.147,-0.001,-0.461,-0.702,-0.51,0.1515,1.0805,1.391,0.76,-0.125,0.353
0.186,0.066,-0.12,-0.126,0.1535,-0.027,-0.4155,-0.653,-0.4755,0.1675,1.067,1.376,0.747,-0.144,0.332
0.1805,0.029,-0.152,-0.1045,0.1665,-0.061,-0.364,-0.5955,-0.4315,0.1885,1.056,1.3585,0.732,-0.183,0.3095
0.175,-0.009,-0.1835,-0.083,0.179,-0.096,-0.3065,-0.5295,-0.378,0.2165,1.0435,1.3395,0.716,-0.218,0.2805
0.1585,-0.046,-0.205,-0.056,0.1815,-0.125,-0.2645,-0.475,-0.3385,0.229,1.017,1.311,0.6885,-0.24,0.254
0.1535,-0.0665,-0.22,-0.043,0.1865,-0.143,-0.225,-0.426,-0.298,0.248,0.994,1.2835,0.6675,-0.2535,0.234
0.1485,-0.077,-0.225,-0.0355,0.1865,-0.151,-0.183,-0.378,-0.254,0.27,0.978,1.264,0.6505,-0.2595,0.2065
0.1395,-0.105,-0.2445,-0.017,0.192,-0.1745,-0.143,-0.345,-0.2395,0.2585,0.928,1.223,0.6135,-0.2805,0.192
0.1325,-0.1425,-0.2745,0.005,0.2035,-0.2085,-0.1075,-0.311,-0.2275,0.2455,0.8745,1.1785,0.575,-0.311,0.18
0.122,-0.172,-0.2935,0.0255,0.2075,-0.2325,-0.069,-0.2665,-0.2025,0.249,0.8425,1.145,0.5425,-0.333,0.1555
0.118,-0.206,-0.324,0.044,0.221,-0.265,-0.0325,-0.221,-0.1765,0.2505,0.797,1.1065,0.5195,-0.355,0.1405
0.1125,-0.221,-0.334,0.0545,0.223,-0.277,0.0005,-0.179,-0.1475,0.257,0.763,1.073,0.489,-0.371,0.12
0.104,-0.234,-0.338,0.065,0.221,-0.2855,0.0395,-0.141,-0.1285,0.257,0.7255,1.043,0.4575,-0.385,0.0985
0.0895,-0.264,-0.3535,0.0875,0.221,-0.3085,0.076,-0.108,-0.1165,0.2455,0.6755,0.996,0.4195,-0.4085,0.0805
0.075,-0.2905,-0.3655,0.108,0.22,-0.328,0.1055,-0.078,-0.106,0.2375,0.632,0.955,0.382,-0.432,0.0655
0.0625,-0.304,-0.3665,0.121,0.2145,-0.335,0.1265,-0.048,-0.0935,0.2305,0.5895,0.9265,0.358,-0.44,0.05
0.0465,-0.3055,-0.352,0.1295,0.199,-0.3285,0.1505,-0.0315,-0.0945,0.206,0.542,0.8815,0.316,-0.4375,0.0335
0.0375,-0.3025,-0.3405,0.1325,0.189,-0.321,0.1715,-0.0105,-0.093,0.1925,0.5065,0.844,0.2875,-0.4395,0.019
0.0175,-0.305,-0.3225,0.144,0.17,-0.3135,0.196,0.0195,-0.079,0.184,0.4705,0.8,0.246,-0.4435,-0.0045
0.005,-0.303,-0.3075,0.149,0.1565,-0.305,0.228,0.0505,-0.0635,0.176,0.429,0.755,0.203,-0.4385,-0.029
0.0,-0.2675,-0.2675,0.134,0.134,-0.267,0.253,0.076,-0.042,0.1775,0.412,0.726,0.177,-0.4155,-0.0565
-0.014,-0.227,-0.213,0.1205,0.0995,-0.22,0.272,0.0985,-0.018,0.18,0.4005,0.7025,0.152,-0.384,-0.086
-0.023,-0.218,-0.195,0.121,0.086,-0.2065,0.3,0.142,0.016,0.197,0.39,0.6845,0.1385,-0.3785,-0.114
-0.0325,-0.216,-0.184,0.1245,0.076,-0.2,0.326,0.1795,0.0455,0.2085,0.369,0.6575,0.1185,-0.375,-0.1415
-0.0455,-0.1895,-0.144,0.118,0.049,-0.1665,0.335,0.2015,0.068,0.213,0.3525,0.6325,0.0995,-0.3455,-0.16
-0.0615,-0.1625,-0.101,0.112,0.02,-0.1315,0.358,0.2245,0.0855,0.207,0.325,0.587,0.0555,-0.324,-0.1845
-0.077,-0.149,-0.0725,0.113,-0.002,-0.1105,0.388,0.2455,0.0945,0.191,0.2805,0.5305,0.0,-0.318,-0.2105
-0.0835,-0.1455,-0.062,0.1145,-0.0105,-0.1035,0.4125,0.267,0.105,0.179,0.2435,0.485,-0.0375,-0.324,-0.2275
-0.099,-0.1485,-0.05,0.124,-0.0245,-0.099,0.443,0.292,0.1245,0.175,0.203,0.44,-0.0765,-0.3315,-0.246
-0.1205,-0.1355,-0.015,0.1285,-0.053,-0.075,0.462,0.313,0.141,0.169,0.172,0.3895,-0.121,-0.3215,-0.266
-0.1505,-0.1195,0.0305,0.1355,-0.0905,-0.0445,0.475,0.3195,0.145,0.1505,0.1325,0.3325,-0.175,-0.2985,-0.281
-0.1905,-0.1065,0.084,0.1485,-0.1375,-0.011,0.5005,0.3365,0.159,0.1465,0.112,0.295,-0.2175,-0.281,-0.2985
-0.1915,-0.091,0.1005,0.1415,-0.146,0.005,0.5195,0.352,0.1725,0.1455,0.1015,0.261,-0.2445,-0.2705,-0.324
-0.2,-0.0795,0.1205,0.14,-0.16,0.0205,0.538,0.369,0.194,0.1535,0.09,0.2325,-0.268,-0.2635,-0.3505
-0.224,-0.0625,0.162,0.1435,-0.193,0.05,0.5655,0.397,0.225,0.1685,0.0925,0.2145,-0.286,-0.255,-0.375
-0.237,-0.045,0.192,0.1415,-0.2145,0.0735,0.5845,0.415,0.2445,0.172,0.087,0.19,-0.304,-0.24,-0.394
-0.25,-0.034,0.216,0.1425,-0.233,0.091,0.5985,0.4385,0.269,0.1865,0.095,0.179,-0.3155,-0.231,-0.415
-0.2635,-0.019,0.2445,0.1415,-0.254,0.113,0.616,0.454,0.2945,0.2025,0.1,0.17,-0.3205,-0.2185,-0.4355
-0.2835,-0.008,0.2755,0.146,-0.2795,0.134,0.6285,0.463,0.302,0.201,0.097,0.157,-0.3335,-0.2065,-0.4465
-0.302,-0.012,0.2905,0.157,-0.296,0.1395,0.639,0.482,0.314,0.206,0.095,0.151,-0.346,-0.199,-0.4635
-0.318,-0.0075,0.31,0.163,-0.314,0.1515,0.6505,0.4905,0.329,0.216,0.101,0.1455,-0.3485,-0.1875,-0.4755
-0.312,0.006,0.3175,0.1535,-0.315,0.162,0.6535,0.4965,0.335,0.22,0.1115,0.15,-0.341,-0.187,-0.484
-0.3105,0.0175,0.328,0.147,-0.3195,0.173,0.666,0.512,0.355,0.236,0.1205,0.1565,-0.339,-0.188,-0.4995
-0.3275,0.0265,0.354,0.151,-0.341,0.1905,0.681,0.5265,0.372,0.2485,0.1315,0.1595,-0.3465,-0.1815,-0.5085
-0.321,0.033,0.354,0.144,-0.3375,0.194,0.68,0.5335,0.376,0.25,0.1315,0.157,-0.349,-0.174,-0.5155
-0.3035,0.042,0.3455,0.131,-0.324,0.194,0.6805,0.5385,0.3795,0.2485,0.1245,0.146,-0.3485,-0.1655,-0.519
-0.2935,0.05,0.343,0.122,-0.3185,0.1965,0.685,0.54,0.379,0.2425,0.119,0.139,-0.3485,-0.1665,-0.5205
-0.297,0.0565,0.353,0.1205,-0.325,0.205,0.691,0.5455,0.3835,0.2465,0.1245,0.141,-0.35,-0.162,-0.527
-0.3105,0.064,0.374,0.1235,-0.342,0.2195,0.7005,0.56,0.3955,0.2555,0.1315,0.144,-0.355,-0.1535,-0.537
-0.323,0.066,0.389,0.129,-0.356,0.2275,0.7085,0.5665,0.3995,0.2565,0.127,0.1385,-0.362,-0.1535,-0.5435
-0.334,0.0695,0.4035,0.1325,-0.369,0.237,0.714,0.569,0.405,0.2585,0.1295,0.1345,-0.3675,-0.1475,-0.549
-0.3355,0.083,0.4185,0.1265,-0.377,0.251,0.7265,0.5815,0.4205,0.2685,0.1385,0.1375,-0.37,-0.1385,-0.566
-0.332,0.0965,0.4285,0.118,-0.3805,0.263,0.737,0.596,0.4315,0.276,0.1405,0.1405,-0.3675,-0.1285,-0.5795
-0.329,0.1055,0.4345,0.112,-0.382,0.2705,0.746,0.601,0.442,0.2845,0.1525,0.141,-0.3685,-0.121,-0.5885
-0.3395,0.1065,0.4455,0.1165,-0.3925,0.276,0.754,0.6105,0.4515,0.2905,0.1535,0.1375,-0.373,-0.1135,-0.5985
-0.3605,0.099,0.4595,0.131,-0.41,0.2795,0.758,0.619,0.457,0.2935,0.1525,0.1355,-0.3735,-0.112,-0.606
-0.3645,0.1,0.464,0.1325,-0.414,0.2825,0.764,0.6245,0.4655,0.3015,0.1625,0.1405,-0.37,-0.114,-0.61
-0.3585,0.105,0.4635,0.127,-0.411,0.2845,0.767,0.627,0.466,0.302,0.16,0.143,-0.3695,-0.1135,-0.611
-0.3565,0.106,0.4625,0.1255,-0.4095,0.2845,0.767,0.6235,0.462,0.2975,0.1565,0.137,-0.373,-0.115,-0.6155
-0.3505,0.1125,0.463,0.119,-0.4065,0.288,0.763,0.6225,0.4615,0.2965,0.154,0.134,-0.374,-0.113,-0.614
-0.35,0.113,0.4635,0.1185,-0.4065,0.2885,0.7625,0.62,0.4595,0.2955,0.1535,0.1345,-0.374,-0.115,-0.6105
-0.3525,0.112,0.464,0.1205,-0.4085,0.288,0.764,0.6225,0.458,0.291,0.149,0.1265,-0.3795,-0.1165,-0.6125
-0.3505,0.106,0.4565,0.1225,-0.4035,0.2815,0.76,0.62,0.456,0.286,0.1435,0.1185,-0.384,-0.121,-0.61
-0.3535,0.1025,0.4565,0.126,-0.405,0.28,0.7645,0.619,0.453,0.2835,0.1395,0.114,-0.3875,-0.1255,-0.6095
-0.351,0.1075,0.4585,0.122,-0.405,0.2835,0.7695,0.6245,0.4565,0.2865,0.1365,0.1165,-0.3875,-0.124,-0.6105
-0.3535,0.107,0.4605,0.1235,-0.407,0.284,0.7655,0.6195,0.4545,0.2845,0.135,0.1175,-0.388,-0.121,-0.608
-0.36,0.1095,0.4695,0.1255,-0.4145,0.2895,0.765,0.6165,0.4515,0.2795,0.1265,0.109,-0.397,-0.116,-0.607
-0.3545,0.111,0.4655,0.122,-0.41,0.2885,0.769,0.622,0.4555,0.2825,0.128,0.11,-0.396,-0.1155,-0.61
-0.35,0.1125,0.4625,0.119,-0.406,0.2875,0.7715,0.6215,0.4545,0.2815,0.13,0.1095,-0.392,-0.1135,-0.609
-0.3525,0.1115,0.464,0.1205,-0.408,0.288,0.773,0.626,0.4575,0.2795,0.125,0.1085,-0.394,-0.112,-0.61
-0.3605,0.1115,0.472,0.125,-0.4165,0.292,0.776,0.63,0.4605,0.28,0.124,0.111,-0.3965,-0.1145,-0.6115
-0.365,0.1115,0.4765,0.127,-0.421,0.2945,0.7775,0.6295,0.4585,0.2775,0.122,0.106,-0.4005,-0.1155,-0.6125
-0.362,0.116,0.478,0.1235,-0.42,0.2975,0.783,0.6375,0.4645,0.282,0.125,0.106,-0.399,-0.112,-0.618
-0.36,0.116,0.4755,0.122,-0.418,0.296,0.7835,0.6355,0.4625,0.2785,0.1235,0.102,-0.4015,-0.1135,-0.6185
-0.363,0.1085,0.4715,0.1275,-0.417,0.2905,0.784,0.6355,0.461,0.2745,0.1165,0.097,-0.4055,-0.118,-0.6215
-0.365,0.111,0.476,0.1275,-0.4205,0.2935,0.789,0.6395,0.466,0.277,0.117,0.0935,-0.4075,-0.1105,-0.6235
-0.3625,0.11,0.4725,0.1265,-0.4175,0.2915,0.7905,0.6415,0.4665,0.276,0.117,0.093,-0.407,-0.1145,-0.623
-0.3615,0.1125,0.474,0.125,-0.4175,0.293,0.794,0.646,0.4685,0.277,0.1175,0.091,-0.409,-0.119,-0.6245
-0.3635,0.113,0.4765,0.1255,-0.42,0.295,0.7955,0.646,0.4685,0.276,0.12,0.085,-0.415,-0.1105,-0.6275
-0.363,0.1125,0.4755,0.1255,-0.419,0.294,0.8,0.649,0.4715,0.2765,0.1145,0.089,-0.4145,-0.105,-0.6305
-0.36,0.112,0.472,0.1245,-0.416,0.292,0.8,0.6495,0.4715,0.2745,0.1075,0.086,-0.415,-0.1065,-0.6295
-0.3655,0.107,0.4725,0.1295,-0.419,0.29,0.8,0.6485,0.4705,0.2725,0.1085,0.0785,-0.418,-0.1105,-0.631
-0.371,0.104,0.4755,0.1335,-0.4235,0.29,0.805,0.654,0.4735,0.273,0.1075,0.077,-0.4195,-0.11,-0.633
-0.366,0.11,0.476,0.1285,-0.4215,0.2935,0.8075,0.66,0.4765,0.2755,0.1095,0.078,-0.4195,-0.1075,-0.634
-0.373,0.1125,0.4855,0.1305,-0.429,0.2995,0.813,0.6635,0.481,0.277,0.1145,0.077,-0.423,-0.1015,-0.6375
-0.3815,0.107,0.489,0.1375,-0.4355,0.2985,0.817,0.663,0.4795,0.274,0.107,0.0725,-0.427,-0.103,-0.6405
-0.377,0.1135,0.4905,0.132,-0.434,0.302,0.8185,0.6645,0.481,0.2725,0.101,0.07,-0.4295,-0.1075,-0.641
-0.383,0.1115,0.494,0.136,-0.4385,0.303,0.8135,0.6635,0.482,0.271,0.1015,0.0685,-0.4285,-0.105,-0.637
-0.387,0.1045,0.4915,0.142,-0.4395,0.298,0.8145,0.661,0.4805,0.269,0.096,0.0665,-0.43,-0.1095,-0.638
-0.377,0.112,0.4895,0.133,-0.4335,0.301,0.8245,0.6655,0.4835,0.27,0.0945,0.0675,-0.4355,-0.1135,-0.6415
-0.3685,0.12,0.4885,0.1245,-0.4285,0.3045,0.8245,0.669,0.4865,0.271,0.0915,0.0675,-0.4335,-0.1125,-0.6415
-0.3615,0.1215,0.483,0.12,-0.422,0.3025,0.825,0.6705,0.486,0.2675,0.0885,0.0645,-0.432,-0.106,-0.6405
-0.3615,0.1195,0.481,0.121,-0.421,0.3005,0.8285,0.6705,0.4855,0.267,0.088,0.062,-0.4335,-0.1045,-0.6435
-0.3695,0.1155,0.485,0.1275,-0.4275,0.3005,0.829,0.6725,0.486,0.2675,0.084,0.061,-0.434,-0.113,-0.645
-0.3755,0.1145,0.49,0.131,-0.433,0.3025,0.8355,0.6735,0.4825,0.2655,0.0865,0.0635,-0.438,-0.1155,-0.645
-0.374,0.118,0.492,0.1285,-0.433,0.3055,0.8385,0.68,0.4925,0.2715,0.0885,0.062,-0.441,-0.112,-0.6505
-0.374,0.116,0.49,0.129,-0.432,0.303,0.8405,0.688,0.5015,0.2775,0.089,0.061,-0.4375,-0.108,-0.653
-0.3755,0.111,0.486,0.1325,-0.4305,0.299,0.8415,0.6885,0.5,0.2765,0.093,0.061,-0.4355,-0.109,-0.6515
-0.372,0.113,0.4845,0.13,-0.428,0.299,0.842,0.692,0.499,0.275,0.088,0.055,-0.4415,-0.105,-0.6535
-0.373,0.1135,0.4865,0.13,-0.43,0.3,0.8435,0.698,0.501,0.276,0.0865,0.0545,-0.4415,-0.103,-0.6575
-0.38,0.1135,0.4935,0.1335,-0.4365,0.3035,0.8465,0.7065,0.51,0.2795,0.088,0.0585,-0.4435,-0.1075,-0.6605
-0.3895,0.1095,0.4985,0.14,-0.444,0.3045,0.85,0.7085,0.5105,0.2795,0.0875,0.057,-0.4435,-0.109,-0.6595
-0.3975,0.0975,0.495,0.1505,-0.446,0.2965,0.8485,0.7075,0.508,0.276,0.089,0.0565,-0.4375,-0.11,-0.6595
-0.4025,0.091,0.493,0.156,-0.4475,0.2925,0.854,0.708,0.5085,0.272,0.0785,0.0465,-0.4495,-0.109,-0.666
-0.4035,0.094,0.4975,0.155,-0.4505,0.296,0.853,0.7115,0.51,0.2735,0.0765,0.045,-0.4545,-0.112,-0.665
-0.4,0.1005,0.5005,0.15,-0.4505,0.301,0.855,0.7135,0.5115,0.274,0.0765,0.049,-0.451,-0.1085,-0.6625
-0.3955,0.102,0.4975,0.147,-0.4465,0.3,0.865,0.719,0.514,0.2765,0.0785,0.047,-0.452,-0.1065,-0.6685
-0.3985,0.104,0.5025,0.1475,-0.4505,0.3035,0.869,0.726,0.5215,0.2825,0.0845,0.0465,-0.4515,-0.1075,-0.6705
-0.395,0.106,0.501,0.145,-0.448,0.3035,0.875,0.7285,0.525,0.2805,0.0785,0.045,-0.454,-0.108,-0.669
-0.388,0.1065,0.4945,0.141,-0.4415,0.3005,0.881,0.735,0.5265,0.284,0.0785,0.0475,-0.452,-0.115,-0.671
-0.39,0.1085,0.498,0.141,-0.444,0.3035,0.8835,0.738,0.5295,0.287,0.079,0.045,-0.455,-0.118,-0.6745
-0.391,0.107,0.498,0.1425,-0.4445,0.3025,0.8855,0.738,0.53,0.2835,0.078,0.04,-0.4575,-0.118,-0.677
-0.392,0.105,0.497,0.1435,-0.4445,0.301,0.8875,0.74,0.531,0.2835,0.0725,0.041,-0.453,-0.1155,-0.6785
-0.3925,0.103,0.495,0.145,-0.4435,0.2995,0.8885,0.7415,0.5325,0.283,0.065,0.036,-0.456,-0.113,-0.6755
-0.3995,0.1005,0.5,0.1495,-0.4495,0.3005,0.891,0.7475,0.537,0.288,0.069,0.0355,-0.459,-0.1125,-0.6785
-0.4035,0.0995,0.503,0.1525,-0.453,0.3015,0.893,0.752,0.5405,0.29,0.07,0.0385,-0.4575,-0.114,-0.681
-0.396,0.098,0.494,0.1495,-0.445,0.2965,0.895,0.756,0.541,0.2875,0.068,0.035,-0.4605,-0.121,-0.682
-0.397,0.0995,0.496,0.149,-0.4465,0.298,0.899,0.761,0.543,0.2875,0.065,0.0325,-0.4645,-0.1215,-0.6865
-0.402,0.1,0.502,0.1515,-0.452,0.301,0.8975,0.763,0.5485,0.2895,0.064,0.03,-0.4655,-0.116,-0.686
-0.404,0.0975,0.5015,0.1535,-0.453,0.2995,0.904,0.769,0.5495,0.2875,0.0635,0.0275,-0.4685,-0.1125,-0.689
-0.404,0.098,0.502,0.153,-0.453,0.3005,0.9155,0.776,0.5555,0.291,0.0625,0.024,-0.474,-0.111,-0.6955
-0.399,0.1,0.499,0.1495,-0.449,0.3,0.9175,0.7795,0.56,0.2945,0.061,0.0235,-0.473,-0.1155,-0.696
-0.4005,0.0955,0.496,0.1525,-0.448,0.296,0.9195,0.783,0.5605,0.2945,0.0615,0.02,-0.476,-0.1215,-0.698
-0.401,0.0925,0.493,0.1545,-0.447,0.293,0.921,0.7855,0.5645,0.293,0.0585,0.01,-0.481,-0.116,-0.7025
-0.399,0.095,0.494,0.152,-0.4465,0.2945,0.923,0.7885,0.563,0.29,0.0515,0.013,-0.481,-0.1105,-0.7035
-0.4025,0.0995,0.502,0.152,-0.4525,0.301,0.927,0.793,0.567,0.295,0.0525,0.0175,-0.484,-0.1145,-0.7065
-0.4105,0.0925,0.503,0.1595,-0.457,0.298,0.9305,0.7935,0.5695,0.294,0.0505,0.0135,-0.4825,-0.1145,-0.7085
-0.417,0.0865,0.5035,0.1655,-0.4605,0.2955,0.9355,0.7955,0.57,0.294,0.047,0.01,-0.4835,-0.1155,-0.7095
-0.4115,0.0905,0.502,0.1605,-0.457,0.2965,0.94,0.8005,0.574,0.295,0.047,0.0125,-0.4835,-0.1175,-0.71
-0.4055,0.0945,0.5,0.156,-0.453,0.2975,0.9405,0.805,0.578,0.2945,0.047,0.0145,-0.4805,-0.113,-0.7095
-0.406,0.0955,0.5015,0.1555,-0.4535,0.299,0.942,0.808,0.581,0.2955,0.047,0.0085,-0.4845,-0.112,-0.7105
-0.409,0.09,0.499,0.1595,-0.454,0.295,0.9475,0.8095,0.587,0.2995,0.0475,0.0055,-0.4875,-0.1155,-0.716
-0.4125,0.0935,0.5055,0.16,-0.459,0.3,0.952,0.8115,0.59,0.301,0.0505,0.006,-0.493,-0.1145,-0.721
-0.4125,0.089,0.501,0.162,-0.457,0.2955,0.9565,0.819,0.5885,0.298,0.045,0.0045,-0.492,-0.116,-0.722
-0.403,0.091,0.494,0.156,-0.4485,0.2925,0.961,0.8295,0.5985,0.3065,0.046,0.006,-0.49,-0.117,-0.7215
-0.404,0.0955,0.499,0.1545,-0.4515,0.2975,0.965,0.832,0.6045,0.306,0.052,0.0045,-0.4905,-0.112,-0.7225
-0.412,0.0855,0.4975,0.1635,-0.4545,0.292,0.9675,0.836,0.607,0.305,0.0475,0.003,-0.4895,-0.1175,-0.7255
-0.411,0.085,0.4965,0.163,-0.454,0.291,0.9735,0.843,0.613,0.3115,0.049,0.004,-0.495,-0.1215,-0.7295
-0.415,0.082,0.4965,0.1665,-0.4555,0.2895,0.979,0.842,0.611,0.3085,0.047,-0.0005,-0.499,-0.1225,-0.737
-0.4105,0.0855,0.496,0.1625,-0.453,0.291,0.9825,0.845,0.612,0.309,0.045,-0.0015,-0.5005,-0.1235,-0.7385
-0.41,0.0895,0.4995,0.1605,-0.4545,0.295,0.99,0.8545,0.6225,0.3145,0.0525,0.001,-0.4975,-0.1175,-0.743
-0.412,0.087,0.499,0.1625,-0.4555,0.2935,0.9945,0.8595,0.6225,0.313,0.045,-0.002,-0.5,-0.117,-0.7455
-0.41,0.0865,0.497,0.162,-0.4535,0.292,0.9965,0.861,0.623,0.313,0.0445,-0.0065,-0.504,-0.1215,-0.7455
-0.412,0.0875,0.4995,0.1625,-0.456,0.294,0.9985,0.8635,0.63,0.3145,0.051,-0.006,-0.5035,-0.1185,-0.7485
-0.4155,0.088,0.5035,0.164,-0.4595,0.296,1.001,0.871,0.6335,0.3165,0.0425,-0.0065,-0.5045,-0.1225,-0.747
-0.4205,0.085,0.5055,0.168,-0.463,0.2955,0.9995,0.874,0.6365,0.3175,0.036,-0.0135,-0.5095,-0.13,-0.7505
-0.419,0.088,0.507,0.1655,-0.463,0.2975,1.0055,0.881,0.643,0.3215,0.044,-0.01,-0.5085,-0.125,-0.758
-0.4155,0.0905,0.506,0.163,-0.461,0.2985,1.012,0.889,0.647,0.325,0.0495,-0.01,-0.5055,-0.1235,-0.7615
-0.4165,0.088,0.5045,0.1645,-0.4605,0.2965,1.012,0.892,0.647,0.3245,0.044,-0.0155,-0.5075,-0.1255,-0.7595
-0.4165,0.088,0.5045,0.1645,-0.4605,0.2965,1.0165,0.9005,0.654,0.329,0.0485,-0.015,-0.5045,-0.1245,-0.764
-0.416,0.0835,0.4995,0.1665,-0.4575,0.2915,1.0175,0.9015,0.655,0.329,0.0495,-0.0185,-0.511,-0.125,-0.7695
-0.4205,0.076,0.4965,0.1725,-0.4585,0.2865,1.023,0.907,0.66,0.3315,0.0425,-0.0205,-0.512,-0.129,-0.7715
-0.4195,0.0755,0.495,0.1725,-0.4575,0.2855,1.0245,0.911,0.6625,0.331,0.038,-0.0235,-0.512,-0.1285,-0.7735
-0.4195,0.081,0.5005,0.1695,-0.46,0.291,1.0265,0.914,0.6665,0.333,0.038,-0.022,-0.5115,-0.1225,-0.7725
-0.421,0.0885,0.5095,0.1665,-0.4655,0.299,1.0335,0.9265,0.68,0.3425,0.043,-0.019,-0.5095,-0.118,-0.776
-0.4255,0.089,0.514,0.1685,-0.4695,0.302,1.0345,0.938,0.6895,0.35,0.0465,-0.0185,-0.5145,-0.116,-0.784
-0.426,0.088,0.514,0.169,-0.47,0.301,1.038,0.941,0.693,0.3525,0.0515,-0.017,-0.51,-0.1225,-0.784
-0.4195,0.091,0.5105,0.1645,-0.4655,0.301,1.042,0.944,0.6965,0.3545,0.052,-0.0175,-0.51,-0.1215,-0.785
-0.4355,0.086,0.5215,0.175,-0.4785,0.304,1.0455,0.9495,0.7025,0.3585,0.052,-0.018,-0.513,-0.118,-0.793
-0.4455,0.085,0.5305,0.1805,-0.488,0.308,1.0515,0.955,0.7085,0.3615,0.055,-0.015,-0.512,-0.1215,-0.7955
-0.4385,0.088,0.5265,0.1755,-0.4825,0.3075,1.0575,0.961,0.716,0.368,0.055,-0.0165,-0.512,-0.121,-0.799
-0.43,0.088,0.518,0.171,-0.474,0.303,1.058,0.964,0.719,0.3685,0.0545,-0.0195,-0.51,-0.122,-0.8025
-0.4315,0.086,0.518,0.173,-0.4745,0.3025,1.063,0.97,0.7245,0.372,0.057,-0.019,-0.511,-0.123,-0.804
-0.436,0.0855,0.5215,0.1755,-0.479,0.3035,1.065,0.975,0.7305,0.3755,0.059,-0.02,-0.5125,-0.1235,-0.809
-0.435,0.086,0.521,0.1745,-0.478,0.304,1.063,0.9795,0.734,0.3775,0.059,-0.0195,-0.512,-0.119,-0.8115
-0.44,0.0835,0.5235,0.1785,-0.482,0.3035,1.0635,0.98,0.736,0.378,0.0545,-0.028,-0.5155,-0.1135,-0.813
-0.454,0.087,0.541,0.184,-0.4975,0.314,1.073,0.992,0.748,0.3865,0.06,-0.021,-0.516,-0.1125,-0.8155
-0.472,0.095,0.567,0.189,-0.5195,0.3315,1.082,1.0085,0.765,0.402,0.072,-0.016,-0.5185,-0.115,-0.818
-0.4535,0.0925,0.5455,0.1805,-0.4995,0.319,1.078,1.009,0.766,0.401,0.0695,-0.022,-0.518,-0.122,-0.818
-0.424,0.09,0.514,0.167,-0.469,0.3025,1.078,1.0095,0.7675,0.3995,0.0665,-0.0185,-0.5115,-0.122,-0.8205
-0.4155,0.0965,0.512,0.16,-0.464,0.3045,1.0775,1.013,0.7705,0.4015,0.066,-0.0235,-0.5125,-0.118,-0.8225
-0.415,0.0975,0.5125,0.159,-0.464,0.3055,1.0795,1.0185,0.7745,0.4015,0.066,-0.026,-0.516,-0.1165,-0.8235
-0.4235,0.099,0.5225,0.1625,-0.473,0.3115,1.0885,1.029,0.786,0.4125,0.071,-0.026,-0.516,-0.117,-0.831
-0.42,0.1065,0.5265,0.157,-0.473,0.3165,1.094,1.0395,0.798,0.4255,0.0805,-0.0215,-0.512,-0.1165,-0.8335
-0.418,0.104,0.522,0.157,-0.47,0.313,1.0945,1.045,0.8055,0.427,0.0835,-0.0205,-0.5115,-0.117,-0.8345
-0.427,0.0985,0.5255,0.1645,-0.476,0.312,1.098,1.051,0.8115,0.4285,0.0805,-0.0305,-0.521,-0.122,-0.8415
-0.428,0.0955,0.5235,0.1665,-0.476,0.31,1.1005,1.0555,0.82,0.4345,0.0795,-0.03,-0.518,-0.1225,-0.841
-0.432,0.086,0.518,0.1735,-0.475,0.302,1.0975,1.059,0.823,0.4385,0.083,-0.025,-0.512,-0.124,-0.8435
-0.433,0.084,0.517,0.175,-0.475,0.3005,1.0975,1.0635,0.8255,0.4385,0.079,-0.0295,-0.516,-0.118,-0.849
-0.4325,0.0875,0.5195,0.1725,-0.476,0.304,1.1,1.0715,0.834,0.4425,0.075,-0.0285,-0.5115,-0.111,-0.85
-0.4355,0.09,0.5255,0.173,-0.4805,0.308,1.105,1.08,0.8455,0.453,0.087,-0.026,-0.5115,-0.112,-0.8565
-0.4245,0.0975,0.5215,0.164,-0.473,0.3095,1.106,1.0835,0.852,0.458,0.0855,-0.025,-0.5105,-0.1095,-0.8555
-0.4195,0.095,0.5145,0.1625,-0.467,0.305,1.1015,1.089,0.856,0.46,0.085,-0.019,-0.5055,-0.113,-0.8545
-0.425,0.093,0.518,0.1665,-0.4715,0.3055,1.103,1.0965,0.8645,0.465,0.0855,-0.02,-0.507,-0.113,-0.86
-0.426,0.0975,0.5235,0.1645,-0.475,0.311,1.1085,1.103,0.873,0.474,0.091,-0.0155,-0.502,-0.109,-0.8615
-0.429,0.101,0.53,0.1645,-0.4795,0.3155,1.1125,1.111,0.8835,0.4845,0.101,-0.0075,-0.498,-0.113,-0.867
-0.4195,0.1075,0.527,0.156,-0.473,0.3175,1.107,1.114,0.8895,0.488,0.095,-0.008,-0.496,-0.1125,-0.865
-0.412,0.1135,0.5255,0.1495,-0.469,0.3195,1.1035,1.115,0.892,0.49,0.0935,-0.01,-0.4985,-0.1065,-0.864
-0.413,0.113,0.526,0.15,-0.4695,0.32,1.109,1.122,0.903,0.4995,0.101,-0.0085,-0.495,-0.1065,-0.8685
-0.408,0.115,0.523,0.1465,-0.4655,0.3195,1.111,1.124,0.91,0.506,0.11,-0.0075,-0.4865,-0.1065,-0.87
-0.4125,0.1165,0.529,0.1485,-0.471,0.323,1.112,1.123,0.9155,0.51,0.115,-0.006,-0.4885,-0.1035,-0.873
-0.412,0.115,0.527,0.149,-0.4695,0.321,1.112,1.1265,0.9205,0.5155,0.113,-0.007,-0.483,-0.101,-0.872
-0.4025,0.126,0.5285,0.1385,-0.4655,0.3275,1.111,1.131,0.9285,0.523,0.117,0.0,-0.48,-0.0935,-0.875
-0.412,0.1265,0.539,0.143,-0.4755,0.333,1.1195,1.1415,0.941,0.536,0.135,0.012,-0.4825,-0.095,-0.883
-0.425,0.1155,0.5405,0.155,-0.4825,0.3285,1.119,1.1455,0.945,0.5395,0.132,0.003,-0.4815,-0.1,-0.883
-0.418,0.121,0.539,0.149,-0.4785,0.33,1.1145,1.1475,0.9515,0.543,0.1355,0.0025,-0.4765,-0.095,-0.884
-0.406,0.1275,0.5335,0.1395,-0.47,0.3305,1.1145,1.1525,0.959,0.549,0.1455,0.0085,-0.471,-0.09,-0.8865
-0.401,0.127,0.528,0.137,-0.4645,0.328,1.111,1.157,0.9635,0.5535,0.1425,0.0105,-0.469,-0.0895,-0.885
-0.4015,0.1275,0.529,0.1375,-0.4655,0.3285,1.1105,1.163,0.97,0.5625,0.1505,0.014,-0.468,-0.0895,-0.889
-0.404,0.1295,0.533,0.1375,-0.4685,0.3315,1.111,1.1705,0.978,0.569,0.1565,0.0155,-0.4675,-0.094,-0.894
-0.403,0.1345,0.537,0.1345,-0.47,0.336,1.106,1.174,0.982,0.572,0.1575,0.0185,-0.463,-0.091,-0.8905
-0.4025,0.138,0.54,0.1325,-0.471,0.3395,1.104,1.18,0.993,0.584,0.1645,0.021,-0.457,-0.0845,-0.892
-0.4,0.1395,0.54,0.1305,-0.47,0.34,1.104,1.193,1.008,0.597,0.1735,0.03,-0.4515,-0.088,-0.896
-0.394,0.1435,0.5375,0.1255,-0.466,0.3405,1.103,1.198,1.0145,0.6025,0.181,0.036,-0.4465,-0.0835,-0.898
-0.393,0.1445,0.5375,0.1245,-0.4655,0.3415,1.1035,1.2015,1.021,0.6115,0.1875,0.0395,-0.443,-0.078,-0.901
-0.3955,0.1515,0.5465,0.122,-0.471,0.349,1.101,1.204,1.0285,0.618,0.192,0.043,-0.4395,-0.075,-0.9005
-0.396,0.1595,0.5555,0.1185,-0.4755,0.3575,1.1005,1.208,1.037,0.6285,0.1995,0.0495,-0.435,-0.073,-0.899
-0.396,0.165,0.561,0.1155,-0.4785,0.3635,1.1025,1.2135,1.046,0.639,0.2085,0.056,-0.429,-0.0685,-0.8985
-0.388,0.171,0.559,0.109,-0.4735,0.365,1.099,1.217,1.0555,0.6485,0.2165,0.0595,-0.424,-0.065,-0.896
-0.3835,0.17,0.5535,0.107,-0.4685,0.362,1.094,1.2215,1.0605,0.6545,0.2225,0.0665,-0.414,-0.068,-0.895
-0.387,0.1685,0.5555,0.1095,-0.471,0.362,1.091,1.2245,1.067,0.6615,0.2295,0.0745,-0.41,-0.0685,-0.899
-0.389,0.172,0.561,0.109,-0.475,0.367,1.0895,1.23,1.0765,0.6725,0.2365,0.0775,-0.4115,-0.066,-0.9035
-0.387,0.1775,0.5645,0.105,-0.476,0.3715,1.087,1.233,1.0815,0.6785,0.245,0.082,-0.4055,-0.0585,-0.9045
-0.382,0.176,0.558,0.103,-0.47,0.367,1.079,1.2295,1.086,0.684,0.25,0.087,-0.396,-0.057,-0.9025
-0.3815,0.1735,0.555,0.1045,-0.4685,0.3645,1.0705,1.23,1.089,0.6855,0.247,0.0835,-0.394,-0.0565,-0.9035
-0.3875,0.175,0.5625,0.1065,-0.475,0.369,1.07,1.234,1.0945,0.693,0.2575,0.0915,-0.395,-0.05,-0.9065
-0.3865,0.181,0.5675,0.103,-0.477,0.374,1.0705,1.2445,1.1075,0.711,0.275,0.1035,-0.384,-0.0475,-0.908
-0.372,0.189,0.561,0.0915,-0.4665,0.3755,1.0605,1.25,1.1145,0.717,0.279,0.1075,-0.372,-0.044,-0.905
-0.3605,0.195,0.5555,0.083,-0.458,0.376,1.0525,1.2415,1.1135,0.717,0.287,0.11,-0.366,-0.036,-0.903
-0.37,0.1945,0.5645,0.088,-0.467,0.38,1.0505,1.244,1.121,0.727,0.2945,0.114,-0.3645,-0.038,-0.904
-0.3745,0.1995,0.5735,0.088,-0.474,0.3865,1.048,1.247,1.1275,0.734,0.292,0.1205,-0.363,-0.037,-0.902
-0.3625,0.2075,0.57,0.0775,-0.466,0.389,1.042,1.245,1.1305,0.742,0.299,0.1245,-0.357,-0.0305,-0.902
-0.355,0.2125,0.567,0.0715,-0.461,0.39,1.04,1.2475,1.137,0.7515,0.313,0.131,-0.349,-0.032,-0.9005
-0.346,0.2185,0.5645,0.064,-0.455,0.392,1.034,1.246,1.142,0.758,0.32,0.1345,-0.3395,-0.031,-0.897
-0.3395,0.2245,0.564,0.0575,-0.452,0.3945,1.0205,1.2415,1.144,0.761,0.321,0.1425,-0.3345,-0.026,-0.895
-0.341,0.2315,0.573,0.055,-0.457,0.4025,1.018,1.239,1.141,0.7645,0.3265,0.155,-0.3285,-0.0205,-0.894
-0.3475,0.236,0.5835,0.056,-0.4655,0.41,1.016,1.2405,1.151,0.775,0.334,0.1595,-0.322,-0.0195,-0.8935
-0.341,0.241,0.5825,0.0505,-0.462,0.412,1.0065,1.2405,1.156,0.7815,0.343,0.1655,-0.314,-0.02,-0.892
-0.3255,0.246,0.5715,0.04,-0.4485,0.409,0.9985,1.2405,1.161,0.794,0.3545,0.1755,-0.302,-0.017,-0.888
-0.3285,0.25,0.5785,0.0395,-0.4535,0.4145,0.991,1.229,1.162,0.796,0.362,0.1785,-0.2995,-0.0065,-0.8825
-0.3285,0.2515,0.5805,0.039,-0.4545,0.416,0.9815,1.2285,1.16,0.7975,0.3675,0.1855,-0.292,-0.0025,-0.8805
-0.3165,0.2585,0.5755,0.029,-0.446,0.4175,0.975,1.238,1.1705,0.8115,0.3765,0.1935,-0.2815,-0.0035,-0.88
-0.31,0.27,0.5795,0.0205,-0.4445,0.425,0.97,1.229,1.17,0.8125,0.3805,0.193,-0.281,0.0005,-0.8785
-0.3015,0.279,0.5805,0.0115,-0.441,0.43,0.9625,1.2275,1.1745,0.8205,0.3935,0.2045,-0.2725,0.0035,-0.8785
-0.3,0.284,0.584,0.0085,-0.442,0.434,0.953,1.2225,1.1745,0.824,0.404,0.21,-0.266,0.01,-0.873
-0.303,0.28,0.583,0.0115,-0.443,0.432,0.9435,1.2155,1.1725,0.8265,0.4075,0.214,-0.26,0.011,-0.87
-0.295,0.2825,0.5775,0.0065,-0.436,0.43,0.9335,1.214,1.176,0.835,0.4135,0.2245,-0.251,0.0115,-0.869
-0.2865,0.2905,0.577,-0.0015,-0.432,0.4335,0.9265,1.2095,1.1755,0.838,0.42,0.2315,-0.2445,0.0135,-0.8655
-0.2895,0.2925,0.582,-0.001,-0.436,0.4375,0.9155,1.2005,1.174,0.8405,0.4285,0.237,-0.2355,0.016,-0.8605
-0.2955,0.2895,0.585,0.0035,-0.4405,0.437,0.903,1.1955,1.1725,0.8445,0.4315,0.2415,-0.23,0.027,-0.857
-0.296,0.2875,0.5835,0.0045,-0.44,0.436,0.895,1.1905,1.171,0.8485,0.4355,0.248,-0.226,0.027,-0.8555
-0.2915,0.292,0.584,0.0,-0.438,0.4385,0.886,1.181,1.1685,0.85,0.441,0.2525,-0.2185,0.029,-0.85
-0.277,0.3025,0.5795,-0.0125,-0.4285,0.441,0.8795,1.1785,1.1695,0.855,0.449,0.26,-0.212,0.033,-0.846
-0.2655,0.3085,0.574,-0.021,-0.4195,0.441,0.8715,1.1725,1.1675,0.8595,0.4585,0.2695,-0.2045,0.034,-0.843
-0.2615,0.311,0.5725,-0.0245,-0.417,0.442,0.86,1.167,1.1655,0.863,0.4685,0.277,-0.196,0.0395,-0.841
-0.2635,0.3165,0.58,-0.026,-0.4215,0.4485,0.85,1.1575,1.163,0.8645,0.474,0.2815,-0.19,0.0415,-0.8375
-0.257,0.32,0.577,-0.031,-0.417,0.4485,0.8405,1.1495,1.155,0.862,0.4765,0.286,-0.1845,0.0485,-0.831
-0.245,0.3265,0.5715,-0.0405,-0.4085,0.449,0.83,1.1435,1.155,0.8655,0.487,0.295,-0.176,0.0475,-0.826
-0.252,0.33,0.582,-0.039,-0.417,0.4565,0.8245,1.1405,1.158,0.8735,0.496,0.3005,-0.174,0.043,-0.821
-0.259,0.331,0.59,-0.036,-0.4245,0.461,0.819,1.1355,1.152,0.8725,0.5015,0.3115,-0.166,0.046,-0.8165
-0.2565,0.3395,0.596,-0.041,-0.426,0.468,0.808,1.1235,1.1495,0.8745,0.511,0.3265,-0.1525,0.0515,-0.809
-0.241,0.3445,0.5855,-0.0515,-0.4135,0.4655,0.796,1.114,1.145,0.8765,0.517,0.3245,-0.1465,0.056,-0.8045
-0.227,0.3495,0.5765,-0.061,-0.4015,0.463,0.7875,1.102,1.1385,0.876,0.5235,0.3305,-0.138,0.06,-0.804
-0.229,0.3535,0.582,-0.062,-0.4055,0.468,0.782,1.0955,1.1305,0.8715,0.5255,0.3435,-0.132,0.062,-0.798
-0.235,0.353,0.5875,-0.0585,-0.4115,0.4705,0.7725,1.088,1.127,0.874,0.5315,0.3525,-0.1265,0.063,-0.792
-0.237,0.356,0.593,-0.059,-0.415,0.4745,0.765,1.0785,1.1245,0.878,0.5425,0.358,-0.122,0.0685,-0.788
-0.231,0.359,0.59,-0.064,-0.4105,0.475,0.7515,1.067,1.114,0.8725,0.5465,0.3645,-0.1135,0.0715,-0.779
-0.228,0.353,0.5815,-0.062,-0.405,0.4675,0.735,1.051,1.1035,0.867,0.548,0.3665,-0.105,0.0725,-0.769
-0.233,0.3465,0.579,-0.0565,-0.406,0.463,0.7295,1.04,1.0945,0.8625,0.549,0.367,-0.103,0.072,-0.7665
-0.231,0.3515,0.5825,-0.06,-0.4065,0.467,0.7255,1.0355,1.0925,0.8665,0.5515,0.377,-0.0985,0.0745,-0.762
-0.2305,0.355,0.586,-0.062,-0.4085,0.471,0.7185,1.028,1.0875,0.867,0.557,0.384,-0.0945,0.078,-0.7555
-0.2335,0.3555,0.5895,-0.061,-0.4115,0.473,0.7075,1.016,1.0805,0.867,0.563,0.391,-0.0885,0.073,-0.7505
-0.224,0.36,0.584,-0.0675,-0.404,0.4725,0.6975,1.0075,1.0735,0.867,0.571,0.398,-0.0785,0.075,-0.744
-0.215,0.362,0.577,-0.0735,-0.396,0.4695,0.6895,0.996,1.0655,0.8625,0.574,0.402,-0.074,0.0765,-0.739
-0.215,0.3625,0.5775,-0.0735,-0.396,0.47,0.682,0.9845,1.055,0.8565,0.5735,0.402,-0.076,0.0755,-0.7325
-0.2125,0.365,0.5775,-0.076,-0.395,0.4715,0.673,0.9735,1.045,0.853,0.576,0.4085,-0.0725,0.0795,-0.7255
-0.2015,0.374,0.5755,-0.086,-0.3885,0.475,0.665,0.963,1.0395,0.8535,0.5825,0.414,-0.0665,0.0815,-0.7195
-0.202,0.372,0.574,-0.085,-0.388,0.4735,0.6555,0.9515,1.028,0.847,0.587,0.417,-0.0605,0.0845,-0.715
-0.2045,0.367,0.571,-0.081,-0.388,0.4695,0.6475,0.9425,1.0175,0.842,0.588,0.4245,-0.056,0.083,-0.7075
-0.2025,0.3705,0.573,-0.084,-0.3875,0.472,0.6425,0.935,1.013,0.8415,0.592,0.4285,-0.053,0.0865,-0.7015
-0.2045,0.3675,0.572,-0.081,-0.3885,0.47,0.6355,0.9235,1.001,0.8365,0.5905,0.432,-0.0485,0.0885,-0.7
-0.199,0.3685,0.5675,-0.0845,-0.383,0.468,0.6295,0.913,0.991,0.8335,0.5995,0.4355,-0.0455,0.084,-0.6935
-0.192,0.3755,0.5675,-0.0915,-0.38,0.472,0.6215,0.9035,0.9835,0.8265,0.602,0.4425,-0.04,0.087,-0.6865
-0.1895,0.3755,0.565,-0.0925,-0.3775,0.4705,0.6135,0.8895,0.969,0.817,0.588,0.4455,-0.0425,0.0845,-0.6795
-0.19,0.3735,0.564,-0.0915,-0.377,0.469,0.609,0.8775,0.9605,0.8135,0.588,0.4485,-0.0395,0.0855,-0.6755
-0.1915,0.372,0.5635,-0.09,-0.3775,0.468,0.6025,0.872,0.9525,0.808,0.5875,0.451,-0.0365,0.088,-0.67
-0.194,0.3655,0.5595,-0.0855,-0.377,0.463,0.5915,0.8625,0.942,0.804,0.587,0.4565,-0.0305,0.0775,-0.662
-0.195,0.3635,0.5585,-0.084,-0.3765,0.4615,0.586,0.8525,0.929,0.7945,0.5885,0.463,-0.026,0.076,-0.6565
-0.193,0.365,0.5585,-0.086,-0.376,0.462,0.583,0.8395,0.9175,0.784,0.5855,0.458,-0.0345,0.078,-0.6545
-0.19,0.3645,0.5545,-0.087,-0.372,0.4595,0.576,0.826,0.909,0.7805,0.581,0.4615,-0.031,0.076,-0.649
-0.183,0.3685,0.551,-0.0925,-0.367,0.46,0.57,0.8195,0.899,0.7755,0.58,0.465,-0.026,0.0755,-0.6405
-0.183,0.367,0.5505,-0.092,-0.367,0.459,0.564,0.8075,0.887,0.767,0.5785,0.463,-0.0245,0.075,-0.634
-0.1805,0.363,0.5435,-0.091,-0.362,0.4535,0.561,0.798,0.877,0.7605,0.58,0.4645,-0.023,0.075,-0.6295
-0.176,0.3645,0.5405,-0.094,-0.358,0.4525,0.5555,0.7905,0.8715,0.7595,0.589,0.4665,-0.025,0.077,-0.6325
-0.1745,0.365,0.54,-0.095,-0.3575,0.453,0.5495,0.778,0.8545,0.745,0.577,0.4645,-0.029,0.078,-0.627
-0.1685,0.365,0.5335,-0.098,-0.351,0.4495,0.541,0.769,0.844,0.738,0.57,0.4655,-0.029,0.0745,-0.618
-0.17,0.3595,0.5295,-0.0945,-0.35,0.445,0.537,0.7565,0.833,0.729,0.5675,0.46,-0.031,0.0715,-0.6145
-0.165,0.3585,0.5235,-0.0965,-0.3445,0.4415,0.5305,0.746,0.823,0.721,0.562,0.4565,-0.033,0.0695,-0.61
-0.152,0.357,0.509,-0.1025,-0.331,0.4335,0.5245,0.735,0.8135,0.7195,0.5645,0.4635,-0.025,0.063,-0.607
-0.1495,0.356,0.505,-0.103,-0.327,0.4305,0.5205,0.72,0.797,0.705,0.557,0.461,-0.0245,0.0655,-0.599
-0.154,0.3575,0.5115,-0.1015,-0.333,0.4345,0.5135,0.713,0.7925,0.7035,0.5595,0.4625,-0.0235,0.074,-0.5965
-0.163,0.3505,0.5135,-0.0935,-0.3385,0.432,0.516,0.7155,0.787,0.704,0.566,0.472,-0.02,0.063,-0.596
-0.177,0.35,0.527,-0.0865,-0.352,0.439,0.5165,0.7095,0.782,0.698,0.566,0.474,-0.024,0.063,-0.5945
-0.1745,0.3495,0.524,-0.0875,-0.349,0.437,0.511,0.6935,0.768,0.6845,0.554,0.466,-0.028,0.0655,-0.588
-0.165,0.344,0.509,-0.089,-0.337,0.4265,0.504,0.6895,0.7615,0.6815,0.5525,0.465,-0.0245,0.0575,-0.5815
-0.1645,0.343,0.5075,-0.089,-0.336,0.425,0.5025,0.687,0.756,0.679,0.556,0.4645,-0.0245,0.059,-0.5815
-0.1655,0.336,0.5015,-0.085,-0.3335,0.419,0.5015,0.679,0.7425,0.6675,0.5475,0.468,-0.0205,0.059,-0.5765
-0.1735,0.331,0.5045,-0.0785,-0.339,0.418,0.4975,0.6725,0.7395,0.667,0.5505,0.4745,-0.018,0.0625,-0.5715
-0.163,0.337,0.5,-0.087,-0.3315,0.4185,0.493,0.666,0.7285,0.658,0.5455,0.466,-0.023,0.0635,-0.566
-0.1665,0.3335,0.5005,-0.083,-0.334,0.4175,0.4945,0.6655,0.7245,0.6575,0.5445,0.4675,-0.0265,0.0525,-0.566
-0.192,0.322,0.514,-0.065,-0.353,0.418,0.498,0.663,0.719,0.655,0.5465,0.4765,-0.029,0.0445,-0.565
-0.191,0.318,0.509,-0.0635,-0.35,0.414,0.4935,0.6565,0.708,0.644,0.537,0.4715,-0.026,0.049,-0.557
-0.1905,0.3175,0.508,-0.063,-0.3495,0.413,0.493,0.657,0.708,0.6435,0.539,0.472,-0.019,0.0525,-0.5525
-0.1785,0.3175,0.496,-0.069,-0.337,0.407,0.4905,0.6535,0.6995,0.6385,0.541,0.4775,-0.0175,0.0475,-0.5505
-0.159,0.32,0.479,-0.08,-0.319,0.4,0.4805,0.641,0.6895,0.6295,0.533,0.4675,-0.0275,0.0445,-0.551
-0.1595,0.3185,0.4775,-0.079,-0.3185,0.398,0.478,0.632,0.679,0.62,0.5195,0.4605,-0.0305,0.043,-0.5475
-0.1615,0.311,0.4725,-0.075,-0.317,0.392,0.4755,0.631,0.6705,0.614,0.514,0.463,-0.0285,0.0405,-0.5425
-0.167,0.3095,0.4765,-0.071,-0.3215,0.393,0.473,0.6275,0.6695,0.612,0.516,0.4635,-0.0305,0.037,-0.5395
-0.163,0.3085,0.4715,-0.0725,-0.3175,0.39,0.4705,0.6205,0.6625,0.6075,0.5145,0.465,-0.0265,0.033,-0.5355
-0.1585,0.3045,0.4635,-0.0725,-0.311,0.384,0.468,0.617,0.6555,0.603,0.512,0.4615,-0.0325,0.029,-0.5355
-0.167,0.3045,0.4715,-0.0685,-0.319,0.388,0.4675,0.615,0.6525,0.599,0.509,0.46,-0.0385,0.0285,-0.532
-0.1775,0.297,0.475,-0.0595,-0.326,0.3865,0.4665,0.612,0.6455,0.5925,0.505,0.4585,-0.038,0.031,-0.529
-0.1815,0.2925,0.4745,-0.0555,-0.328,0.384,0.462,0.608,0.64,0.5885,0.502,0.459,-0.037,0.0265,-0.528
-0.1735,0.297,0.471,-0.0615,-0.322,0.3845,0.4635,0.6045,0.636,0.5855,0.503,0.459,-0.036,0.0235,-0.526
-0.167,0.2995,0.4665,-0.066,-0.3165,0.383,0.4715,0.604,0.634,0.583,0.5005,0.4605,-0.038,0.0275,-0.5235
-0.1675,0.299,0.4665,-0.0655,-0.317,0.383,0.471,0.601,0.6325,0.582,0.4985,0.457,-0.0435,0.0245,-0.5235
-0.1635,0.298,0.462,-0.067,-0.3125,0.3805,0.4705,0.601,0.6285,0.579,0.499,0.453,-0.045,0.0215,-0.524
-0.166,0.2935,0.4595,-0.0635,-0.3125,0.377,0.474,0.6005,0.6245,0.577,0.4965,0.4605,-0.041,0.021,-0.519
-0.173,0.2825,0.456,-0.0545,-0.3145,0.3695,0.474,0.5955,0.6175,0.57,0.491,0.4525,-0.0435,0.0135,-0.518
-0.175,0.282,0.457,-0.053,-0.316,0.3695,0.4715,0.589,0.6115,0.565,0.486,0.4465,-0.045,0.0125,-0.515
-0.1775,0.278,0.456,-0.05,-0.3165,0.367,0.467,0.585,0.605,0.5585,0.4795,0.4465,-0.051,0.016,-0.5145
-0.187,0.265,0.4515,-0.039,-0.3195,0.3585,0.463,0.581,0.599,0.5505,0.471,0.441,-0.0535,0.022,-0.517
-0.194,0.262,0.4555,-0.0335,-0.3245,0.3585,0.463,0.5775,0.598,0.549,0.471,0.4395,-0.0505,0.0215,-0.5115
-0.1885,0.2645,0.4535,-0.038,-0.321,0.3595,0.464,0.5755,0.592,0.545,0.4695,0.4385,-0.056,0.016,-0.513
-0.1835,0.2715,0.455,-0.0435,-0.3195,0.3635,0.466,0.575,0.591,0.5445,0.4685,0.4375,-0.0585,0.017,-0.516
-0.1775,0.2755,0.4535,-0.0485,-0.3155,0.3645,0.4695,0.5785,0.5925,0.545,0.4685,0.438,-0.057,0.0175,-0.513
-0.1735,0.273,0.4465,-0.0495,-0.31,0.3595,0.47,0.576,0.5875,0.541,0.4625,0.4355,-0.0605,0.0155,-0.5105
-0.1745,0.273,0.447,-0.049,-0.3105,0.36,0.4705,0.574,0.587,0.542,0.4625,0.4335,-0.0625,0.015,-0.51
-0.1745,0.267,0.4415,-0.046,-0.308,0.3545,0.467,0.5735,0.5855,0.54,0.464,0.4375,-0.0565,0.0165,-0.508
-0.175,0.264,0.439,-0.044,-0.307,0.3515,0.4685,0.5685,0.5785,0.5335,0.461,0.4355,-0.0585,0.0095,-0.506
-0.1765,0.266,0.4425,-0.0445,-0.3095,0.3545,0.4705,0.568,0.5775,0.5315,0.4565,0.43,-0.064,0.0095,-0.506
-0.175,0.265,0.44,-0.0445,-0.3075,0.3525,0.47,0.566,0.5725,0.5265,0.4545,0.431,-0.063,0.007,-0.502
-0.173,0.2635,0.436,-0.045,-0.3045,0.35,0.4725,0.5665,0.575,0.531,0.4595,0.4305,-0.064,-0.0035,-0.5055
-0.169,0.261,0.43,-0.046,-0.2995,0.346,0.4725,0.569,0.57,0.529,0.456,0.4335,-0.0625,-0.004,-0.5035
-0.1705,0.2625,0.433,-0.046,-0.302,0.348,0.4725,0.563,0.5625,0.5205,0.454,0.4325,-0.064,-0.0025,-0.4995
-0.181,0.2585,0.4395,-0.0385,-0.31,0.3495,0.4715,0.5615,0.5715,0.5225,0.4555,0.426,-0.0665,-0.0015,-0.4995
-0.1845,0.255,0.44,-0.035,-0.312,0.3475,0.473,0.5625,0.5675,0.518,0.45,0.426,-0.067,0.0035,-0.494
-0.17,0.2565,0.4265,-0.043,-0.298,0.3415,0.4725,0.562,0.5635,0.516,0.446,0.425,-0.0675,-0.0015,-0.4975
-0.1655,0.254,0.4195,-0.044,-0.2925,0.337,0.469,0.5595,0.5605,0.5125,0.44,0.4215,-0.0705,-0.0045,-0.499
-0.178,0.2515,0.4295,-0.0365,-0.3035,0.3405,0.4735,0.5605,0.5615,0.513,0.4445,0.4265,-0.0725,0.0025,-0.5
-0.178,0.2525,0.4305,-0.037,-0.3045,0.3415,0.476,0.5635,0.5635,0.514,0.45,0.425,-0.0735,0.006,-0.503
-0.1755,0.253,0.4285,-0.0385,-0.302,0.341,0.4745,0.5605,0.5585,0.5095,0.45,0.4255,-0.0725,0.007,-0.501
-0.177,0.2465,0.4235,-0.0345,-0.3,0.335,0.4765,0.5605,0.558,0.509,0.4435,0.4275,-0.0705,-0.002,-0.4975
-0.1825,0.242,0.4245,-0.0295,-0.3035,0.3335,0.473,0.5545,0.55,0.5,0.427,0.4165,-0.0785,-0.008,-0.4945
-0.19,0.239,0.429,-0.024,-0.3095,0.334,0.474,0.5555,0.549,0.502,0.432,0.4225,-0.0755,-0.008,-0.4975
-0.1905,0.2365,0.427,-0.023,-0.3085,0.332,0.476,0.561,0.555,0.508,0.442,0.4275,-0.072,-0.0095,-0.4985
-0.184,0.243,0.427,-0.029,-0.3055,0.335,0.4775,0.557,0.5525,0.5025,0.431,0.417,-0.079,-0.008,-0.4985
-0.176,0.247,0.4235,-0.035,-0.2995,0.3355,0.4805,0.554,0.5465,0.4955,0.428,0.417,-0.081,-0.0095,-0.499
-0.1675,0.2465,0.414,-0.039,-0.2905,0.3305,0.4765,0.5525,0.547,0.495,0.432,0.418,-0.0815,-0.01,-0.4965
-0.1685,0.2425,0.411,-0.0365,-0.29,0.3265,0.4815,0.5535,0.55,0.499,0.4255,0.415,-0.082,-0.009,-0.4955
-0.178,0.2435,0.422,-0.0325,-0.3,0.333,0.4845,0.5575,0.552,0.502,0.427,0.4145,-0.085,-0.008,-0.4985
-0.1795,0.245,0.4245,-0.032,-0.302,0.335,0.481,0.5575,0.5535,0.5025,0.432,0.4155,-0.0875,-0.0065,-0.499
-0.183,0.239,0.422,-0.028,-0.3025,0.3305,0.4845,0.5555,0.5485,0.498,0.4245,0.413,-0.0855,-0.0115,-0.5015
-0.188,0.2395,0.4275,-0.0255,-0.308,0.334,0.49,0.5565,0.5505,0.498,0.425,0.4105,-0.0895,-0.0165,-0.5025
-0.184,0.243,0.427,-0.029,-0.3055,0.335,0.4875,0.553,0.549,0.4965,0.4245,0.4075,-0.093,-0.0135,-0.5
-0.182,0.2395,0.4215,-0.0285,-0.302,0.3305,0.485,0.5495,0.5455,0.492,0.4205,0.4065,-0.09,-0.0135,-0.4995
-0.1755,0.2385,0.414,-0.0315,-0.295,0.327,0.491,0.552,0.5455,0.49,0.4195,0.403,-0.0945,-0.0185,-0.5035
-0.1805,0.235,0.4155,-0.027,-0.298,0.3255,0.488,0.554,0.547,0.491,0.417,0.3995,-0.0955,-0.017,-0.504
-0.195,0.2255,0.421,-0.015,-0.308,0.3235,0.4825,0.549,0.5445,0.487,0.413,0.399,-0.0945,-0.015,-0.502
-0.189,0.2265,0.416,-0.0185,-0.3025,0.3215,0.4845,0.544,0.54,0.484,0.413,0.397,-0.099,-0.0215,-0.5025
-0.1805,0.2285,0.409,-0.024,-0.2945,0.3195,0.488,0.5495,0.547,0.4895,0.419,0.4045,-0.093,-0.028,-0.502
-0.1805,0.2275,0.408,-0.023,-0.2945,0.318,0.488,0.5515,0.546,0.49,0.4165,0.3985,-0.096,-0.026,-0.5025
-0.178,0.2305,0.4085,-0.026,-0.293,0.3195,0.4855,0.5485,0.544,0.487,0.4145,0.393,-0.0995,-0.0235,-0.5005
-0.1765,0.2295,0.406,-0.026,-0.2915,0.318,0.4885,0.554,0.548,0.491,0.4195,0.4005,-0.0955,-0.02,-0.502
-0.1815,0.2255,0.407,-0.022,-0.2945,0.3165,0.489,0.553,0.547,0.4925,0.4195,0.3965,-0.0965,-0.0215,-0.5025
-0.184,0.224,0.4075,-0.0195,-0.2955,0.316,0.4855,0.5535,0.5475,0.49,0.418,0.3965,-0.096,-0.027,-0.4995
-0.184,0.225,0.4085,-0.02,-0.296,0.317,0.4855,0.5515,0.5445,0.4865,0.411,0.3955,-0.0965,-0.0265,-0.4995
-0.182,0.2305,0.4125,-0.024,-0.2975,0.3215,0.493,0.558,0.549,0.4915,0.4135,0.399,-0.0965,-0.0265,-0.5035
-0.1815,0.233,0.4145,-0.0255,-0.298,0.324,0.4965,0.5635,0.554,0.496,0.417,0.4035,-0.0905,-0.024,-0.5015
-0.186,0.2325,0.418,-0.023,-0.302,0.3255,0.4925,0.5585,0.554,0.4945,0.411,0.4035,-0.085,-0.0185,-0.496
-0.1885,0.229,0.4175,-0.02,-0.303,0.3235,0.4935,0.56,0.5555,0.4935,0.4105,0.4055,-0.091,-0.016,-0.5
-0.1915,0.2235,0.415,-0.0155,-0.303,0.319,0.4945,0.5575,0.5525,0.4895,0.4045,0.3965,-0.1,-0.0185,-0.5025
-0.1955,0.222,0.4175,-0.013,-0.3065,0.32,0.4995,0.5675,0.5625,0.4985,0.41,0.3975,-0.101,-0.018,-0.5025
-0.196,0.226,0.4225,-0.015,-0.3095,0.3245,0.5,0.574,0.567,0.5045,0.421,0.4115,-0.094,-0.018,-0.502
-0.196,0.231,0.427,-0.017,-0.3115,0.329,0.5015,0.573,0.567,0.5025,0.418,0.4115,-0.091,-0.015,-0.4975
-0.201,0.226,0.427,-0.012,-0.314,0.3265,0.4995,0.571,0.564,0.4985,0.412,0.406,-0.094,-0.0175,-0.4985
-0.2065,0.215,0.4215,-0.004,-0.314,0.3185,0.499,0.5725,0.5655,0.4985,0.414,0.4005,-0.099,-0.024,-0.508
-0.207,0.211,0.418,-0.002,-0.3125,0.315,0.5035,0.5765,0.5685,0.5005,0.415,0.3995,-0.0995,-0.0245,-0.5085
-0.212,0.2095,0.422,0.0015,-0.317,0.316,0.501,0.5765,0.5655,0.4985,0.406,0.399,-0.1035,-0.027,-0.508
-0.2085,0.214,0.4225,-0.0025,-0.3155,0.3185,0.498,0.583,0.5705,0.501,0.4065,0.3985,-0.1035,-0.025,-0.509
-0.1995,0.2135,0.4135,-0.007,-0.3065,0.314,0.4925,0.5845,0.5705,0.501,0.4105,0.4,-0.0965,-0.0325,-0.5075
-0.2075,0.2075,0.4145,0.0005,-0.311,0.311,0.4945,0.5795,0.5685,0.4985,0.408,0.3935,-0.1005,-0.0275,-0.513
-0.207,0.2095,0.417,-0.0005,-0.312,0.3135,0.5035,0.582,0.571,0.5005,0.4085,0.395,-0.1025,-0.0255,-0.5125
-0.2005,0.217,0.4175,-0.008,-0.309,0.3175,0.5035,0.589,0.581,0.512,0.419,0.402,-0.095,-0.0335,-0.509
-0.204,0.2215,0.4255,-0.0085,-0.3145,0.3235,0.5055,0.585,0.5795,0.508,0.4215,0.4,-0.098,-0.025,-0.511
-0.2045,0.215,0.42,-0.005,-0.3125,0.3175,0.507,0.588,0.5765,0.5065,0.4135,0.396,-0.1015,-0.027,-0.512
-0.204,0.2135,0.4175,-0.0045,-0.3105,0.3155,0.5015,0.5905,0.5805,0.5105,0.415,0.396,-0.0965,-0.0325,-0.5135
-0.203,0.2165,0.4195,-0.0065,-0.3115,0.3185,0.5035,0.587,0.5795,0.5065,0.4155,0.3935,-0.0995,-0.0315,-0.513
-0.2015,0.217,0.4185,-0.0075,-0.31,0.318,0.502,0.5875,0.581,0.5085,0.418,0.3925,-0.101,-0.0265,-0.51
-0.2045,0.2115,0.416,-0.003,-0.3105,0.314,0.507,0.592,0.579,0.507,0.4155,0.3935,-0.099,-0.0325,-0.5125
-0.204,0.2135,0.4175,-0.0045,-0.3105,0.3155,0.51,0.59,0.581,0.51,0.4155,0.3925,-0.1,-0.0345,-0.513
-0.1965,0.2195,0.4165,-0.0115,-0.3065,0.3185,0.4995,0.5835,0.579,0.506,0.416,0.3895,-0.102,-0.031,-0.5115
-0.188,0.218,0.406,-0.015,-0.297,0.3125,0.502,0.5865,0.5765,0.5,0.4095,0.3865,-0.1025,-0.0355,-0.51
-0.1925,0.213,0.405,-0.01,-0.2985,0.3095,0.502,0.588,0.5785,0.5055,0.413,0.3855,-0.1045,-0.0365,-0.5085
-0.2035,0.206,0.4095,-0.001,-0.3065,0.308,0.5005,0.5905,0.5825,0.5085,0.414,0.388,-0.1025,-0.032,-0.5125
-0.203,0.211,0.414,-0.0035,-0.3085,0.3125,0.507,0.59,0.5835,0.5075,0.4175,0.3845,-0.101,-0.0265,-0.515
-0.195,0.2135,0.408,-0.009,-0.3015,0.311,0.5065,0.5895,0.582,0.509,0.4215,0.387,-0.1025,-0.0335,-0.514
-0.1895,0.2155,0.405,-0.013,-0.297,0.3105,0.5055,0.592,0.5865,0.5105,0.4175,0.392,-0.101,-0.033,-0.511
-0.202,0.2125,0.4145,-0.005,-0.308,0.314,0.512,0.5935,0.589,0.512,0.4145,0.388,-0.104,-0.0275,-0.5135
-0.199,0.2155,0.415,-0.008,-0.307,0.3155,0.5165,0.5945,0.5905,0.5165,0.4205,0.395,-0.099,-0.0255,-0.515
-0.1905,0.221,0.4115,-0.015,-0.301,0.3165,0.514,0.594,0.5895,0.5145,0.4185,0.392,-0.0985,-0.03,-0.513
-0.203,0.207,0.4105,-0.002,-0.307,0.309,0.512,0.59,0.585,0.512,0.4155,0.3845,-0.1,-0.0305,-0.515
-0.2055,0.2005,0.406,0.003,-0.3055,0.3035,0.5095,0.5875,0.582,0.5095,0.415,0.3845,-0.1005,-0.026,-0.515
-0.2015,0.205,0.4065,-0.0015,-0.304,0.306,0.5085,0.593,0.585,0.509,0.4115,0.385,-0.107,-0.03,-0.518
-0.199,0.2115,0.41,-0.006,-0.3045,0.311,0.5145,0.5955,0.587,0.5085,0.413,0.3875,-0.108,-0.036,-0.519
-0.1965,0.2095,0.4055,-0.0065,-0.301,0.3075,0.512,0.592,0.588,0.512,0.413,0.3835,-0.107,-0.042,-0.515
-0.1935,0.21,0.4035,-0.008,-0.2985,0.3075,0.5095,0.5915,0.586,0.512,0.414,0.3835,-0.107,-0.039,-0.5155
-0.197,0.2145,0.4115,-0.009,-0.3045,0.3135,0.5145,0.5935,0.586,0.5105,0.4125,0.3855,-0.1065,-0.0385,-0.5165
-0.203,0.2135,0.4165,-0.0055,-0.3095,0.3155,0.5165,0.5975,0.594,0.5185,0.4195,0.388,-0.107,-0.039,-0.5155
-0.201,0.2135,0.415,-0.006,-0.308,0.3145,0.518,0.601,0.5965,0.52,0.4245,0.3925,-0.103,-0.039,-0.5175
-0.207,0.2135,0.4205,-0.003,-0.3135,0.317,0.521,0.603,0.5975,0.522,0.424,0.3935,-0.102,-0.041,-0.5205
-0.214,0.2135,0.4275,0.0,-0.321,0.321,0.5215,0.602,0.598,0.522,0.4235,0.3885,-0.1095,-0.038,-0.519
-0.2045,0.213,0.417,-0.004,-0.311,0.315,0.5185,0.595,0.5915,0.5155,0.4155,0.387,-0.1095,-0.039,-0.518
-0.1875,0.216,0.4035,-0.014,-0.2955,0.31,0.513,0.5925,0.5875,0.5145,0.416,0.3905,-0.105,-0.04,-0.52
-0.18,0.221,0.401,-0.02,-0.2905,0.311,0.508,0.589,0.59,0.5155,0.4165,0.381,-0.1055,-0.031,-0.5175
-0.188,0.2185,0.4065,-0.015,-0.2975,0.313,0.5105,0.5905,0.5925,0.5175,0.4135,0.3795,-0.107,-0.0295,-0.5185
-0.1925,0.2155,0.408,-0.0115,-0.3005,0.312,0.515,0.594,0.591,0.5145,0.4165,0.388,-0.1065,-0.036,-0.521
-0.1935,0.2145,0.4075,-0.01,-0.3005,0.3115,0.515,0.592,0.5945,0.5185,0.42,0.3865,-0.1075,-0.037,-0.5205
-0.194,0.2105,0.405,-0.008,-0.2995,0.308,0.5105,0.5905,0.5945,0.5225,0.4185,0.386,-0.1045,-0.0335,-0.521
-0.1955,0.2105,0.406,-0.0075,-0.301,0.3085,0.5085,0.585,0.5885,0.5155,0.413,0.385,-0.1055,-0.035,-0.517
-0.206,0.2095,0.4155,-0.0015,-0.311,0.313,0.513,0.5895,0.5995,0.5235,0.4245,0.3885,-0.1045,-0.04,-0.513
-0.206,0.209,0.415,-0.001,-0.3105,0.3125,0.5145,0.595,0.6025,0.5275,0.4325,0.391,-0.102,-0.036,-0.514
-0.204,0.213,0.417,-0.004,-0.3105,0.315,0.514,0.594,0.5995,0.526,0.4215,0.386,-0.1065,-0.0335,-0.5135
-0.1945,0.216,0.4105,-0.0105,-0.3025,0.3135,0.513,0.597,0.602,0.5285,0.423,0.391,-0.1,-0.0375,-0.513
-0.198,0.2105,0.408,-0.006,-0.303,0.3095,0.5095,0.597,0.5975,0.525,0.4215,0.385,-0.1055,-0.037,-0.5145
-0.2065,0.201,0.4075,0.003,-0.307,0.3045,0.502,0.5885,0.593,0.5205,0.415,0.3805,-0.104,-0.0315,-0.512
-0.2095,0.2045,0.414,0.0025,-0.312,0.3095,0.506,0.5925,0.595,0.524,0.423,0.3885,-0.095,-0.033,-0.5105
-0.225,0.2095,0.4345,0.008,-0.33,0.322,0.5165,0.6025,0.6025,0.531,0.428,0.383,-0.104,-0.0365,-0.512
-0.207,0.21,0.417,-0.0015,-0.312,0.314,0.5135,0.599,0.601,0.53,0.4235,0.3815,-0.1085,-0.039,-0.515
-0.1935,0.21,0.4035,-0.0075,-0.2985,0.307,0.5105,0.594,0.5935,0.5235,0.4215,0.3765,-0.115,-0.04,-0.5175
-0.1915,0.2105,0.402,-0.0095,-0.2965,0.3065,0.5045,0.5935,0.592,0.521,0.4205,0.3725,-0.1135,-0.0385,-0.517
-0.19,0.2135,0.403,-0.0115,-0.2965,0.3085,0.5055,0.5955,0.5935,0.5235,0.4215,0.3745,-0.111,-0.039,-0.5155
-0.196,0.214,0.4105,-0.009,-0.303,0.3125,0.509,0.597,0.5925,0.5215,0.421,0.375,-0.114,-0.03,-0.5145
-0.1905,0.216,0.407,-0.0125,-0.2985,0.3115,0.51,0.6,0.5955,0.527,0.422,0.378,-0.1085,-0.0295,-0.518
-0.192,0.218,0.41,-0.013,-0.301,0.314,0.51,0.5995,0.5985,0.53,0.428,0.379,-0.108,-0.0335,-0.5175
-0.194,0.2135,0.4075,-0.0095,-0.3005,0.311,0.5105,0.5965,0.596,0.527,0.426,0.3795,-0.108,-0.0355,-0.515
-0.2015,0.204,0.4055,-0.001,-0.3035,0.305,0.508,0.59,0.59,0.5215,0.4155,0.3785,-0.108,-0.0425,-0.513
-0.2065,0.2005,0.407,0.0035,-0.307,0.304,0.5045,0.581,0.5845,0.517,0.409,0.375,-0.1095,-0.0385,-0.5085
-0.2065,0.203,0.4095,0.002,-0.308,0.3065,0.5095,0.582,0.5855,0.5185,0.41,0.3745,-0.112,-0.0365,-0.511
-0.1955,0.213,0.409,-0.0085,-0.302,0.311,0.5065,0.584,0.586,0.52,0.414,0.3825,-0.1085,-0.0345,-0.511
-0.1895,0.2165,0.406,-0.0135,-0.2975,0.3115,0.5055,0.5835,0.587,0.524,0.4175,0.388,-0.1045,-0.033,-0.507
-0.2025,0.2085,0.411,-0.003,-0.307,0.31,0.503,0.5855,0.5865,0.522,0.4115,0.381,-0.11,-0.0335,-0.5085
-0.202,0.211,0.413,-0.004,-0.3075,0.3125,0.507,0.5905,0.5915,0.5265,0.416,0.384,-0.11,-0.0315,-0.515
-0.1985,0.213,0.411,-0.007,-0.305,0.312,0.511,0.5915,0.591,0.526,0.4205,0.3855,-0.1095,-0.037,-0.516
-0.2025,0.2095,0.412,-0.003,-0.307,0.311,0.503,0.5865,0.5855,0.519,0.4115,0.3785,-0.111,-0.039,-0.5115
-0.203,0.211,0.4135,-0.0035,-0.3085,0.3125,0.503,0.5825,0.586,0.523,0.415,0.38,-0.108,-0.039,-0.5095
-0.2005,0.2115,0.412,-0.0055,-0.306,0.312,0.5025,0.585,0.5845,0.5225,0.4145,0.378,-0.11,-0.037,-0.51
-0.2015,0.218,0.4195,-0.008,-0.3105,0.319,0.4995,0.577,0.5835,0.518,0.416,0.374,-0.1135,-0.0295,-0.511
-0.196,0.2185,0.4145,-0.011,-0.3055,0.317,0.4995,0.578,0.582,0.5165,0.4175,0.3775,-0.11,-0.0345,-0.5065
-0.192,0.2125,0.405,-0.01,-0.2985,0.309,0.4985,0.5885,0.5845,0.52,0.413,0.382,-0.1095,-0.039,-0.5055
-0.195,0.216,0.4115,-0.01,-0.3035,0.314,0.4995,0.5875,0.5865,0.522,0.4165,0.383,-0.108,-0.0385,-0.508
-0.194,0.2135,0.407,-0.0095,-0.3005,0.3105,0.5015,0.585,0.5825,0.5175,0.41,0.377,-0.112,-0.039,-0.5065
-0.193,0.214,0.4065,-0.0105,-0.3,0.3105,0.4995,0.5795,0.578,0.5125,0.4075,0.375,-0.1105,-0.036,-0.5055
-0.19,0.218,0.4075,-0.0135,-0.2985,0.313,0.499,0.5805,0.5795,0.515,0.409,0.378,-0.104,-0.035,-0.5025
-0.1865,0.2155,0.402,-0.0145,-0.294,0.309,0.4985,0.5795,0.58,0.5135,0.4055,0.376,-0.1135,-0.035,-0.5055
-0.1855,0.2115,0.397,-0.013,-0.291,0.3045,0.498,0.573,0.573,0.507,0.4025,0.3715,-0.118,-0.039,-0.5075
-0.19,0.211,0.401,-0.0105,-0.2955,0.3065,0.498,0.573,0.5735,0.5105,0.406,0.3745,-0.1135,-0.042,-0.505
-0.1925,0.2145,0.4065,-0.011,-0.2995,0.311,0.4985,0.5755,0.578,0.515,0.413,0.378,-0.1115,-0.038,-0.507
-0.202,0.213,0.4145,-0.005,-0.308,0.314,0.5015,0.575,0.576,0.5125,0.4105,0.3755,-0.1105,-0.0295,-0.505
-0.2085,0.2075,0.416,0.0005,-0.312,0.312,0.5045,0.569,0.573,0.51,0.408,0.3785,-0.11,-0.0325,-0.5055
-0.1965,0.211,0.407,-0.007,-0.3015,0.309,0.502,0.5685,0.574,0.511,0.4085,0.3765,-0.1115,-0.037,-0.505
-0.1955,0.213,0.4085,-0.0085,-0.302,0.311,0.5015,0.568,0.574,0.5095,0.4085,0.3755,-0.1135,-0.0375,-0.502
-0.201,0.2055,0.4065,-0.002,-0.304,0.3065,0.5015,0.5655,0.569,0.5055,0.4015,0.376,-0.117,-0.039,-0.5045
-0.201,0.208,0.409,-0.0035,-0.305,0.309,0.495,0.5665,0.57,0.5065,0.401,0.377,-0.114,-0.0305,-0.503
-0.1985,0.2125,0.411,-0.007,-0.3045,0.312,0.495,0.566,0.571,0.5095,0.4055,0.3825,-0.109,-0.0335,-0.4995
-0.1985,0.2085,0.407,-0.005,-0.303,0.308,0.4965,0.5635,0.5665,0.508,0.402,0.379,-0.116,-0.0405,-0.501
-0.198,0.2095,0.407,-0.0055,-0.3025,0.3085,0.497,0.562,0.5635,0.506,0.4005,0.376,-0.1195,-0.038,-0.5045
-0.1915,0.216,0.407,-0.012,-0.299,0.3115,0.4975,0.5665,0.565,0.507,0.4045,0.382,-0.114,-0.0395,-0.5005
-0.1895,0.2145,0.404,-0.0125,-0.2965,0.3095,0.4905,0.5665,0.564,0.5065,0.4065,0.3805,-0.112,-0.04,-0.5
-0.1895,0.2155,0.4055,-0.0125,-0.2975,0.3105,0.488,0.5655,0.564,0.504,0.4055,0.378,-0.1095,-0.038,-0.5
-0.187,0.221,0.408,-0.0165,-0.2975,0.3145,0.49,0.5675,0.5655,0.507,0.407,0.378,-0.109,-0.0385,-0.4965
-0.189,0.221,0.41,-0.0155,-0.2995,0.3155,0.4915,0.5605,0.555,0.499,0.3975,0.3755,-0.1145,-0.037,-0.4975
-0.19,0.2235,0.4135,-0.0165,-0.3015,0.3185,0.4945,0.563,0.562,0.503,0.401,0.3785,-0.1125,-0.0335,-0.4995
-0.191,0.223,0.4145,-0.016,-0.3025,0.319,0.496,0.562,0.565,0.509,0.4045,0.376,-0.115,-0.03,-0.5005
-0.204,0.214,0.418,-0.0045,-0.311,0.3165,0.492,0.557,0.556,0.5005,0.4,0.3695,-0.116,-0.029,-0.5
-0.2155,0.204,0.4195,0.006,-0.318,0.312,0.4835,0.552,0.553,0.4955,0.397,0.3665,-0.112,-0.0285,-0.496
-0.208,0.208,0.416,0.0,-0.312,0.3125,0.4865,0.5515,0.551,0.493,0.391,0.368,-0.115,-0.024,-0.4935
-0.201,0.2105,0.411,-0.0045,-0.306,0.311,0.4925,0.5545,0.557,0.4995,0.3975,0.3705,-0.115,-0.026,-0.4995
-0.201,0.2095,0.41,-0.004,-0.3055,0.31,0.492,0.5505,0.5535,0.496,0.3975,0.3665,-0.116,-0.0325,-0.501
-0.1995,0.211,0.4105,-0.0055,-0.305,0.3105,0.487,0.547,0.552,0.495,0.3975,0.368,-0.118,-0.037,-0.498
-0.2,0.2085,0.4085,-0.004,-0.304,0.309,0.4875,0.5465,0.553,0.4935,0.395,0.3675,-0.1185,-0.0355,-0.497
-0.1985,0.213,0.4115,-0.007,-0.305,0.3125,0.486,0.545,0.5495,0.4885,0.394,0.365,-0.1165,-0.0315,-0.491
-0.204,0.209,0.413,-0.002,-0.3085,0.311,0.486,0.544,0.548,0.489,0.394,0.369,-0.1175,-0.035,-0.493
-0.2105,0.2025,0.413,0.004,-0.312,0.308,0.4875,0.5435,0.546,0.4865,0.388,0.3675,-0.123,-0.034,-0.5
-0.203,0.2085,0.4115,-0.0025,-0.3075,0.31,0.486,0.5415,0.5455,0.4855,0.386,0.364,-0.123,-0.0285,-0.5
-0.192,0.2155,0.4075,-0.012,-0.2995,0.312,0.4855,0.54,0.5435,0.483,0.384,0.3645,-0.121,-0.03,-0.494
-0.1975,0.2145,0.412,-0.0085,-0.3045,0.3135,0.48,0.535,0.5405,0.4825,0.388,0.3665,-0.1215,-0.0255,-0.494
-0.198,0.2145,0.4125,-0.008,-0.305,0.3135,0.481,0.5345,0.5385,0.483,0.388,0.3685,-0.118,-0.0265,-0.4975
-0.1855,0.224,0.4095,-0.019,-0.2975,0.317,0.4815,0.5375,0.541,0.4845,0.3895,0.3695,-0.1175,-0.0315,-0.491
-0.1865,0.226,0.4125,-0.0195,-0.2995,0.3195,0.485,0.5405,0.5425,0.4845,0.393,0.373,-0.1145,-0.0255,-0.493
-0.1945,0.219,0.4135,-0.012,-0.304,0.3165,0.486,0.5365,0.536,0.4795,0.3895,0.369,-0.111,-0.028,-0.491
-0.195,0.2135,0.4085,-0.0095,-0.302,0.3115,0.481,0.535,0.534,0.479,0.3915,0.366,-0.1165,-0.0325,-0.4915
-0.1915,0.2165,0.408,-0.0125,-0.2995,0.3125,0.4765,0.5365,0.532,0.478,0.3815,0.3665,-0.1225,-0.03,-0.4975
-0.1955,0.2215,0.417,-0.0125,-0.3065,0.3195,0.4785,0.536,0.533,0.481,0.3855,0.3755,-0.1165,-0.0295,-0.49
-0.1995,0.2225,0.422,-0.011,-0.311,0.3225,0.4845,0.5425,0.5395,0.489,0.3995,0.387,-0.1125,-0.029,-0.491
-0.1975,0.217,0.4145,-0.0095,-0.306,0.316,0.4845,0.5445,0.539,0.49,0.396,0.3795,-0.119,-0.037,-0.496
-0.1945,0.219,0.4135,-0.012,-0.304,0.3165,0.4825,0.538,0.5345,0.487,0.3985,0.3795,-0.118,-0.033,-0.4915
-0.193,0.222,0.4145,-0.014,-0.3035,0.3185,0.4815,0.534,0.534,0.483,0.3895,0.375,-0.1185,-0.03,-0.488
-0.1925,0.221,0.413,-0.014,-0.3025,0.317,0.4845,0.5385,0.539,0.4885,0.3925,0.3785,-0.112,-0.0335,-0.488
-0.198,0.2165,0.4145,-0.009,-0.306,0.3155,0.479,0.533,0.535,0.4855,0.392,0.3795,-0.1105,-0.0365,-0.4855
-0.2105,0.2055,0.4155,0.0025,-0.313,0.3105,0.474,0.5285,0.528,0.477,0.3835,0.37,-0.116,-0.042,-0.484
-0.2135,0.212,0.4255,0.001,-0.3195,0.319,0.4755,0.531,0.5315,0.481,0.3945,0.3755,-0.1145,-0.0345,-0.4805
-0.2055,0.2175,0.4235,-0.006,-0.3145,0.321,0.476,0.5325,0.5365,0.487,0.3955,0.378,-0.1125,-0.039,-0.4825
-0.2025,0.2175,0.4195,-0.007,-0.311,0.319,0.4795,0.5355,0.5355,0.485,0.3895,0.3785,-0.114,-0.0415,-0.4875
-0.203,0.217,0.42,-0.0065,-0.312,0.319,0.479,0.5345,0.5305,0.482,0.3905,0.377,-0.1165,-0.039,-0.487
-0.1985,0.219,0.4175,-0.01,-0.308,0.3185,0.4755,0.536,0.533,0.487,0.3975,0.378,-0.112,-0.0365,-0.4865
-0.194,0.221,0.4145,-0.013,-0.304,0.318,0.4715,0.531,0.527,0.482,0.394,0.3735,-0.1145,-0.0355,-0.484
-0.2,0.2185,0.4185,-0.009,-0.3095,0.3185,0.471,0.5285,0.526,0.48,0.39,0.369,-0.1185,-0.032,-0.486
-0.1985,0.2235,0.422,-0.0125,-0.31,0.323,0.475,0.535,0.5315,0.487,0.3985,0.3825,-0.1135,-0.0285,-0.4825
-0.1915,0.225,0.416,-0.0165,-0.3035,0.3205,0.476,0.5345,0.525,0.4795,0.3935,0.382,-0.113,-0.0325,-0.4805
-0.1985,0.2225,0.4215,-0.012,-0.31,0.3225,0.4745,0.53,0.5275,0.481,0.3935,0.376,-0.114,-0.027,-0.485
-0.197,0.2255,0.4225,-0.014,-0.31,0.3245,0.4735,0.528,0.527,0.4835,0.404,0.3785,-0.112,-0.0245,-0.484
-0.1915,0.2235,0.4155,-0.0155,-0.3035,0.3195,0.4685,0.526,0.5185,0.4745,0.396,0.3725,-0.115,-0.0255,-0.486
-0.19,0.222,0.4115,-0.016,-0.3005,0.317,0.466,0.528,0.519,0.4745,0.3855,0.3705,-0.1155,-0.0275,-0.4855
-0.1915,0.2265,0.418,-0.017,-0.305,0.3225,0.4685,0.527,0.519,0.472,0.3895,0.369,-0.118,-0.028,-0.4805
-0.1945,0.223,0.417,-0.014,-0.306,0.32,0.4685,0.524,0.5165,0.4675,0.387,0.367,-0.1195,-0.0285,-0.4815
-0.1865,0.219,0.4055,-0.016,-0.296,0.3125,0.466,0.523,0.518,0.4695,0.3875,0.3645,-0.116,-0.0295,-0.4865
-0.186,0.2185,0.405,-0.016,-0.2955,0.312,0.4675,0.52,0.5155,0.47,0.3925,0.367,-0.117,-0.032,-0.4855
-0.1875,0.222,0.4095,-0.017,-0.2985,0.316,0.468,0.5175,0.513,0.467,0.3845,0.3675,-0.12,-0.031,-0.484
-0.187,0.2245,0.412,-0.0185,-0.2995,0.3185,0.4685,0.5165,0.513,0.467,0.383,0.364,-0.124,-0.031,-0.4855
-0.1915,0.2205,0.4125,-0.014,-0.302,0.317,0.4695,0.5165,0.515,0.4705,0.3865,0.3665,-0.1225,-0.035,-0.4865
-0.189,0.228,0.4165,-0.0195,-0.3025,0.3225,0.466,0.5105,0.517,0.4705,0.391,0.3665,-0.121,-0.0245,-0.4885
-0.18,0.224,0.404,-0.022,-0.292,0.3145,0.4665,0.516,0.5115,0.4665,0.3885,0.3685,-0.1145,-0.0315,-0.487
-0.1845,0.2145,0.399,-0.015,-0.292,0.3075,0.467,0.522,0.5125,0.4685,0.3815,0.3665,-0.119,-0.036,-0.487
-0.1975,0.215,0.4125,-0.0085,-0.305,0.314,0.467,0.5195,0.516,0.472,0.3885,0.3665,-0.125,-0.027,-0.4895
-0.198,0.2145,0.4125,-0.008,-0.305,0.314,0.469,0.5185,0.5135,0.469,0.3865,0.3695,-0.1195,-0.033,-0.4865
-0.191,0.223,0.4135,-0.0155,-0.3025,0.3185,0.4685,0.514,0.512,0.467,0.3815,0.3685,-0.124,-0.029,-0.4815
-0.1905,0.2255,0.416,-0.0175,-0.303,0.321,0.4725,0.5175,0.5135,0.471,0.388,0.3715,-0.1195,-0.0215,-0.4815
-0.2005,0.2175,0.418,-0.0085,-0.309,0.3175,0.466,0.515,0.513,0.474,0.391,0.3755,-0.1145,-0.021,-0.478
-0.2055,0.216,0.4215,-0.005,-0.3135,0.319,0.4675,0.517,0.515,0.4755,0.3935,0.377,-0.116,-0.0265,-0.4785
-0.197,0.2275,0.424,-0.015,-0.3105,0.326,0.473,0.5235,0.5175,0.476,0.3955,0.3795,-0.113,-0.027,-0.4795
-0.192,0.229,0.4215,-0.0185,-0.3065,0.3255,0.4715,0.52,0.5155,0.4735,0.3905,0.3775,-0.1155,-0.0215,-0.478
-0.1945,0.226,0.4205,-0.0155,-0.3075,0.3235,0.471,0.5205,0.516,0.475,0.3925,0.3775,-0.1175,-0.0235,-0.481
-0.192,0.2255,0.4175,-0.0165,-0.305,0.3215,0.4645,0.5215,0.519,0.4765,0.3925,0.38,-0.1125,-0.0275,-0.4815
-0.1945,0.222,0.4165,-0.0135,-0.3055,0.3195,0.4735,0.5185,0.514,0.4715,0.391,0.3775,-0.1115,-0.0275,-0.4805
-0.1975,0.2255,0.423,-0.014,-0.3105,0.3245,0.479,0.5175,0.5105,0.468,0.396,0.377,-0.1155,-0.0255,-0.4785
-0.2,0.2225,0.422,-0.011,-0.311,0.3225,0.472,0.515,0.513,0.469,0.395,0.3705,-0.1155,-0.029,-0.477
-0.199,0.22,0.4185,-0.01,-0.309,0.3195,0.466,0.514,0.51,0.467,0.3865,0.3655,-0.1165,-0.026,-0.4745
-0.207,0.2165,0.424,-0.0045,-0.3155,0.3205,0.467,0.518,0.5105,0.468,0.3885,0.3705,-0.118,-0.021,-0.4785
-0.2185,0.2095,0.4285,0.0045,-0.3235,0.319,0.4705,0.518,0.5135,0.47,0.396,0.3745,-0.1185,-0.0275,-0.4815
-0.21,0.208,0.418,0.0015,-0.314,0.313,0.4685,0.5155,0.511,0.4655,0.3905,0.3675,-0.1235,-0.032,-0.481
-0.196,0.2145,0.411,-0.009,-0.3035,0.313,0.4665,0.515,0.5095,0.4635,0.3855,0.364,-0.1195,-0.0305,-0.48
-0.18,0.227,0.4075,-0.023,-0.294,0.3175,0.469,0.5155,0.511,0.4655,0.3905,0.369,-0.1115,-0.0295,-0.477
-0.19,0.221,0.411,-0.015,-0.3005,0.316,0.4715,0.513,0.5105,0.466,0.3915,0.37,-0.119,-0.0325,-0.4785
-0.201,0.213,0.414,-0.006,-0.3075,0.3135,0.4675,0.5105,0.5055,0.4605,0.386,0.3655,-0.1235,-0.031,-0.4775
-0.1985,0.2175,0.416,-0.0095,-0.307,0.317,0.4625,0.51,0.5055,0.462,0.3875,0.365,-0.12,-0.0275,-0.4765
-0.1965,0.22,0.4165,-0.0115,-0.3065,0.3185,0.4575,0.508,0.505,0.4625,0.389,0.3705,-0.118,-0.0275,-0.475
-0.194,0.222,0.416,-0.0135,-0.305,0.3195,0.4655,0.511,0.504,0.46,0.388,0.3685,-0.1195,-0.03,-0.4775
-0.193,0.2245,0.4175,-0.015,-0.3055,0.321,0.4675,0.516,0.508,0.4665,0.392,0.3715,-0.1185,-0.0315,-0.475
-0.1885,0.224,0.4125,-0.0175,-0.3005,0.3185,0.4645,0.516,0.5085,0.4685,0.391,0.3715,-0.1165,-0.0315,-0.4725
-0.1915,0.2245,0.4165,-0.0165,-0.304,0.321,0.468,0.5175,0.509,0.4665,0.389,0.3695,-0.1205,-0.0305,-0.477
-0.189,0.222,0.411,-0.016,-0.3,0.3165,0.465,0.5135,0.506,0.4645,0.388,0.3715,-0.1185,-0.0305,-0.4755
-0.1925,0.2165,0.409,-0.012,-0.3005,0.313,0.463,0.51,0.505,0.464,0.3875,0.369,-0.1165,-0.0365,-0.4755
-0.1955,0.2195,0.415,-0.0115,-0.3055,0.3175,0.461,0.512,0.506,0.4645,0.3835,0.373,-0.118,-0.032,-0.473
-0.1915,0.22,0.4115,-0.014,-0.3015,0.316,0.466,0.514,0.506,0.466,0.379,0.374,-0.1165,-0.029,-0.473
-0.203,0.2095,0.4125,-0.003,-0.308,0.3115,0.466,0.5075,0.4995,0.4605,0.3795,0.3695,-0.117,-0.0305,-0.4735
-0.2065,0.2045,0.411,0.0015,-0.309,0.308,0.4625,0.5035,0.499,0.4585,0.377,0.368,-0.117,-0.031,-0.473
-0.199,0.209,0.408,-0.005,-0.3035,0.309,0.4615,0.508,0.505,0.4635,0.3795,0.3725,-0.1125,-0.0325,-0.4725
-0.2035,0.21,0.4135,-0.003,-0.3085,0.312,0.4615,0.51,0.504,0.4645,0.387,0.381,-0.1075,-0.0335,-0.4725
-0.204,0.2135,0.4175,-0.0045,-0.3105,0.3155,0.4645,0.5095,0.5025,0.462,0.383,0.3725,-0.1155,-0.0305,-0.476
-0.2,0.2135,0.4135,-0.0065,-0.3065,0.314,0.461,0.5065,0.502,0.4585,0.3835,0.3685,-0.117,-0.0265,-0.4755
-0.2035,0.2115,0.415,-0.004,-0.3095,0.3135,0.463,0.511,0.507,0.464,0.389,0.3745,-0.1145,-0.033,-0.478
-0.1985,0.2205,0.4195,-0.0105,-0.309,0.32,0.468,0.5145,0.507,0.4635,0.382,0.3755,-0.116,-0.0325,-0.476
-0.199,0.215,0.4145,-0.0075,-0.307,0.315,0.4665,0.5095,0.5035,0.46,0.3795,0.374,-0.117,-0.0335,-0.4735
-0.2005,0.21,0.4105,-0.0045,-0.3055,0.3105,0.465,0.506,0.504,0.4595,0.3785,0.369,-0.1205,-0.0305,-0.477
-0.19,0.219,0.409,-0.0145,-0.2995,0.3145,0.4595,0.5065,0.5035,0.4605,0.381,0.3725,-0.1175,-0.03,-0.4765
-0.188,0.2225,0.4105,-0.017,-0.299,0.3165,0.459,0.504,0.501,0.458,0.382,0.373,-0.116,-0.0295,-0.475
-0.194,0.22,0.414,-0.0125,-0.304,0.3175,0.4625,0.5045,0.503,0.4595,0.3835,0.373,-0.1165,-0.0245,-0.4775
-0.2135,0.2185,0.432,-0.002,-0.323,0.3255,0.4695,0.513,0.508,0.4665,0.39,0.3825,-0.116,-0.0275,-0.478
-0.219,0.2215,0.44,-0.001,-0.3295,0.331,0.473,0.512,0.5075,0.466,0.3915,0.3835,-0.117,-0.025,-0.4795
-0.199,0.2235,0.4225,-0.012,-0.311,0.3235,0.462,0.5075,0.504,0.463,0.3905,0.3745,-0.116,-0.0235,-0.4785
-0.1925,0.2225,0.415,-0.0145,-0.3035,0.319,0.4605,0.5055,0.4995,0.4605,0.385,0.3755,-0.11,-0.0255,-0.4745
-0.191,0.2195,0.4105,-0.014,-0.3005,0.3155,0.46,0.4995,0.497,0.4595,0.385,0.3755,-0.1095,-0.0255,-0.4775
-0.1865,0.222,0.4085,-0.0175,-0.2975,0.3155,0.458,0.499,0.4975,0.459,0.386,0.3755,-0.1155,-0.0215,-0.475
-0.186,0.2205,0.4065,-0.017,-0.296,0.314,0.4575,0.5,0.497,0.4585,0.389,0.3775,-0.115,-0.023,-0.475
-0.1945,0.2145,0.409,-0.01,-0.3015,0.312,0.4585,0.502,0.497,0.458,0.386,0.373,-0.119,-0.0275,-0.48
-0.1945,0.216,0.41,-0.0105,-0.3025,0.313,0.461,0.5045,0.499,0.459,0.379,0.3765,-0.1155,-0.03,-0.4775
-0.191,0.216,0.4065,-0.0125,-0.2985,0.3115,0.4585,0.5045,0.496,0.4575,0.385,0.376,-0.114,-0.0305,-0.476
-0.194,0.2165,0.4105,-0.011,-0.3025,0.314,0.4595,0.502,0.496,0.455,0.3855,0.374,-0.118,-0.0315,-0.48
-0.195,0.2135,0.4085,-0.009,-0.302,0.3115,0.4555,0.4995,0.5005,0.4605,0.393,0.376,-0.117,-0.0385,-0.4795
-0.201,0.2095,0.4105,-0.004,-0.306,0.3105,0.4535,0.501,0.4985,0.458,0.394,0.3765,-0.1205,-0.035,-0.475
-0.205,0.2135,0.419,-0.004,-0.312,0.3165,0.458,0.5025,0.498,0.4555,0.386,0.3775,-0.1195,-0.034,-0.474
-0.2125,0.214,0.4265,-0.0005,-0.3195,0.3205,0.4625,0.5025,0.5,0.458,0.3855,0.369,-0.1245,-0.0285,-0.474
-0.2,0.2125,0.4125,-0.006,-0.3065,0.313,0.461,0.507,0.5035,0.463,0.388,0.3795,-0.1155,-0.033,-0.4745
-0.198,0.212,0.4095,-0.0065,-0.304,0.311,0.46,0.5045,0.5,0.459,0.385,0.378,-0.116,-0.034,-0.4765
-0.2135,0.211,0.424,0.0015,-0.319,0.318,0.463,0.5035,0.499,0.458,0.386,0.376,-0.123,-0.023,-0.4805
-0.2035,0.219,0.4225,-0.0075,-0.313,0.321,0.462,0.5045,0.501,0.4615,0.392,0.381,-0.1165,-0.0305,-0.477
-0.199,0.2265,0.4255,-0.0135,-0.312,0.326,0.4615,0.5055,0.505,0.463,0.3915,0.3755,-0.116,-0.0255,-0.474
-0.191,0.228,0.419,-0.018,-0.305,0.3235,0.4595,0.5025,0.502,0.462,0.392,0.38,-0.114,-0.0285,-0.4735
-0.185,0.226,0.411,-0.02,-0.298,0.3185,0.46,0.5005,0.4975,0.457,0.3855,0.3755,-0.1125,-0.031,-0.469
-0.1885,0.228,0.417,-0.0195,-0.303,0.3225,0.4605,0.5035,0.504,0.464,0.3905,0.374,-0.1095,-0.0215,-0.4685
-0.1895,0.2325,0.422,-0.021,-0.3055,0.3275,0.457,0.497,0.4985,0.4585,0.39,0.37,-0.1215,-0.0195,-0.465
-0.1875,0.229,0.4165,-0.0205,-0.302,0.323,0.458,0.5055,0.4995,0.4585,0.384,0.3715,-0.1185,-0.0245,-0.469
-0.1835,0.227,0.4105,-0.0215,-0.297,0.319,0.46,0.511,0.505,0.4665,0.3915,0.375,-0.1105,-0.0325,-0.476
-0.1815,0.2245,0.406,-0.021,-0.2935,0.3155,0.46,0.507,0.503,0.4625,0.3895,0.3755,-0.118,-0.03,-0.476
-0.1825,0.2185,0.4015,-0.0175,-0.292,0.31,0.454,0.5035,0.499,0.4595,0.3875,0.3745,-0.116,-0.0265,-0.475
-0.1915,0.2145,0.4065,-0.0115,-0.299,0.3105,0.456,0.5005,0.4975,0.46,0.3885,0.378,-0.1125,-0.026,-0.4705
-0.195,0.221,0.4155,-0.0125,-0.305,0.3185,0.46,0.5035,0.5005,0.4605,0.387,0.3785,-0.1165,-0.0275,-0.471
-0.1935,0.2235,0.417,-0.0145,-0.305,0.3205,0.4545,0.501,0.497,0.458,0.3865,0.372,-0.1195,-0.027,-0.4735
-0.1895,0.2215,0.411,-0.016,-0.3,0.3165,0.4565,0.503,0.4995,0.4625,0.3905,0.378,-0.113,-0.0265,-0.472
-0.187,0.227,0.414,-0.0195,-0.3005,0.3205,0.462,0.51,0.509,0.4715,0.3955,0.3795,-0.1125,-0.026,-0.4765
-0.186,0.2315,0.4175,-0.0225,-0.3015,0.3245,0.4595,0.509,0.5085,0.471,0.403,0.3825,-0.112,-0.024,-0.4755
-0.1865,0.229,0.416,-0.021,-0.3015,0.323,0.46,0.5095,0.5045,0.4675,0.401,0.3835,-0.111,-0.026,-0.4745
-0.194,0.2245,0.419,-0.015,-0.3065,0.322,0.4575,0.508,0.5025,0.4665,0.3955,0.3825,-0.1115,-0.029,-0.4755
-0.196,0.227,0.423,-0.0155,-0.3095,0.325,0.4595,0.506,0.501,0.466,0.3955,0.3835,-0.11,-0.027,-0.472
-0.2,0.224,0.424,-0.012,-0.312,0.324,0.459,0.5075,0.503,0.465,0.3905,0.377,-0.1135,-0.023,-0.4735
-0.201,0.22,0.421,-0.009,-0.311,0.3205,0.449,0.5025,0.4995,0.4665,0.3965,0.3765,-0.1125,-0.024,-0.4755
-0.2,0.2215,0.4215,-0.0105,-0.3105,0.3215,0.4555,0.501,0.4955,0.462,0.392,0.3765,-0.113,-0.0235,-0.4745
-0.1975,0.2245,0.4215,-0.013,-0.3095,0.323,0.4605,0.505,0.4975,0.4595,0.3845,0.375,-0.1145,-0.0205,-0.469
-0.1905,0.2265,0.417,-0.018,-0.3035,0.322,0.4575,0.508,0.4985,0.461,0.3875,0.3805,-0.1095,-0.024,-0.468
-0.19,0.227,0.417,-0.0185,-0.3035,0.322,0.452,0.501,0.4955,0.4555,0.3845,0.375,-0.1135,-0.0245,-0.469
-0.192,0.2305,0.4225,-0.019,-0.307,0.327,0.4495,0.502,0.4985,0.459,0.3905,0.3685,-0.1155,-0.02,-0.468
-0.1955,0.2275,0.423,-0.016,-0.309,0.3255,0.458,0.506,0.5,0.4625,0.397,0.3815,-0.1095,-0.0305,-0.4705
-0.194,0.2265,0.4205,-0.016,-0.307,0.3235,0.455,0.5,0.4935,0.4555,0.3895,0.379,-0.1095,-0.0245,-0.468
-0.185,0.235,0.42,-0.025,-0.302,0.3275,0.4545,0.502,0.495,0.455,0.3865,0.3725,-0.113,-0.011,-0.469
-0.1875,0.236,0.4235,-0.0235,-0.3055,0.33,0.4575,0.501,0.494,0.4545,0.39,0.3775,-0.1135,-0.0195,-0.4675
-0.194,0.2325,0.426,-0.019,-0.31,0.3295,0.4555,0.502,0.495,0.457,0.394,0.376,-0.113,-0.025,-0.465
-0.1885,0.2305,0.419,-0.0205,-0.3035,0.325,0.4555,0.5035,0.497,0.46,0.3935,0.3735,-0.1165,-0.0365,-0.4685
-0.1935,0.2305,0.424,-0.0185,-0.3085,0.3275,0.455,0.499,0.4925,0.4535,0.3915,0.3745,-0.1175,-0.028,-0.469
-0.2015,0.23,0.4315,-0.014,-0.3165,0.331,0.4555,0.502,0.496,0.4555,0.3955,0.376,-0.115,-0.019,-0.4685
-0.1935,0.229,0.4225,-0.0175,-0.308,0.326,0.454,0.5035,0.498,0.459,0.397,0.3725,-0.1145,-0.0255,-0.469
-0.1825,0.2295,0.412,-0.023,-0.2975,0.321,0.4555,0.495,0.4905,0.4545,0.3925,0.3655,-0.1185,-0.023,-0.47
-0.179,0.2305,0.409,-0.0255,-0.294,0.32,0.454,0.4935,0.489,0.452,0.392,0.371,-0.1165,-0.0225,-0.471
-0.181,0.234,0.4145,-0.026,-0.2975,0.3245,0.451,0.504,0.499,0.4585,0.3965,0.3735,-0.114,-0.025,-0.47
-0.188,0.234,0.422,-0.023,-0.305,0.3285,0.454,0.4995,0.497,0.4585,0.395,0.3645,-0.12,-0.027,-0.471
-0.1915,0.2375,0.429,-0.023,-0.31,0.3335,0.4565,0.497,0.4965,0.4635,0.401,0.373,-0.117,-0.025,-0.473
-0.1815,0.245,0.426,-0.0315,-0.304,0.336,0.4535,0.4975,0.497,0.4595,0.3945,0.375,-0.115,-0.0195,-0.471
-0.179,0.242,0.4205,-0.031,-0.3,0.3315,0.4515,0.4915,0.4935,0.4555,0.392,0.3705,-0.117,-0.025,-0.47
-0.18,0.24,0.4205,-0.0295,-0.3005,0.3305,0.456,0.497,0.5025,0.47,0.4015,0.3755,-0.113,-0.029,-0.471
-0.173,0.2465,0.4195,-0.0365,-0.296,0.333,0.459,0.499,0.503,0.466,0.3935,0.3735,-0.113,-0.0215,-0.47
-0.175,0.2495,0.424,-0.037,-0.2995,0.337,0.4595,0.498,0.502,0.464,0.402,0.3785,-0.113,-0.0195,-0.4715
-0.19,0.2345,0.4245,-0.022,-0.307,0.33,0.454,0.4895,0.4935,0.4585,0.3945,0.375,-0.1145,-0.0195,-0.469
-0.2085,0.217,0.4255,-0.0035,-0.317,0.3215,0.4485,0.4845,0.4855,0.449,0.3765,0.363,-0.118,-0.0235,-0.467
-0.2095,0.2185,0.428,-0.004,-0.319,0.3235,0.452,0.4905,0.4905,0.4565,0.3865,0.3705,-0.111,-0.0245,-0.468
-0.198,0.2245,0.422,-0.013,-0.31,0.323,0.4535,0.4885,0.492,0.4575,0.39,0.373,-0.11,-0.0165,-0.4685
-0.2025,0.224,0.4265,-0.0105,-0.3145,0.3255,0.454,0.4925,0.495,0.4595,0.393,0.3735,-0.1135,-0.018,-0.471
-0.204,0.225,0.4295,-0.0105,-0.3165,0.3275,0.4515,0.493,0.495,0.4615,0.396,0.378,-0.112,-0.0205,-0.4685
-0.1915,0.2305,0.4215,-0.0195,-0.3065,0.326,0.4505,0.498,0.4965,0.4585,0.39,0.373,-0.116,-0.0155,-0.4665
-0.1895,0.232,0.4215,-0.021,-0.3055,0.327,0.4515,0.506,0.5,0.4615,0.3925,0.3725,-0.1135,-0.0185,-0.47
-0.1945,0.23,0.4245,-0.0175,-0.3095,0.3275,0.4495,0.5005,0.499,0.4625,0.397,0.3745,-0.11,-0.023,-0.47
-0.199,0.2315,0.43,-0.016,-0.3145,0.331,0.4515,0.4995,0.497,0.46,0.3945,0.3745,-0.11,-0.0245,-0.4675
-0.202,0.23,0.432,-0.014,-0.3165,0.331,0.45,0.499,0.4955,0.459,0.396,0.374,-0.112,-0.022,-0.467
-0.203,0.229,0.432,-0.013,-0.3175,0.331,0.4515,0.4955,0.4935,0.4555,0.395,0.3715,-0.117,-0.018,-0.4655
-0.2025,0.229,0.432,-0.013,-0.3175,0.331,0.456,0.5,0.4965,0.46,0.3985,0.3765,-0.1115,-0.026,-0.4715
-0.197,0.2375,0.4345,-0.02,-0.316,0.336,0.4585,0.504,0.501,0.4645,0.401,0.381,-0.1085,-0.0275,-0.472
-0.1935,0.246,0.4395,-0.026,-0.3165,0.343,0.458,0.506,0.5035,0.4665,0.405,0.3825,-0.105,-0.0235,-0.4675
-0.1975,0.238,0.4355,-0.02,-0.3165,0.337,0.456,0.5045,0.5055,0.4685,0.4115,0.383,-0.1055,-0.0215,-0.4705
-0.1995,0.235,0.434,-0.0175,-0.317,0.335,0.4545,0.498,0.4975,0.4605,0.3975,0.373,-0.1165,-0.0205,-0.47
-0.1975,0.2305,0.4275,-0.0165,-0.3125,0.329,0.4515,0.495,0.4925,0.456,0.3915,0.3755,-0.113,-0.0255,-0.466
-0.1975,0.2305,0.428,-0.016,-0.3125,0.3295,0.452,0.4965,0.496,0.4585,0.396,0.3825,-0.109,-0.021,-0.4635
-0.197,0.2345,0.4315,-0.0185,-0.314,0.333,0.453,0.499,0.496,0.46,0.392,0.383,-0.1075,-0.0195,-0.464
-0.196,0.2325,0.4285,-0.018,-0.3125,0.331,0.454,0.5,0.498,0.46,0.391,0.381,-0.104,-0.02,-0.466
-0.1945,0.2395,0.434,-0.022,-0.3145,0.337,0.4535,0.492,0.497,0.46,0.394,0.3815,-0.1075,-0.017,-0.467
-0.195,0.233,0.428,-0.019,-0.3115,0.3305,0.4515,0.49,0.491,0.4565,0.3885,0.382,-0.111,-0.0215,-0.465
-0.196,0.2305,0.4265,-0.017,-0.311,0.3285,0.451,0.498,0.4955,0.459,0.389,0.3795,-0.11,-0.0215,-0.467
-0.193,0.2375,0.4305,-0.022,-0.3115,0.334,0.4505,0.495,0.498,0.4605,0.3935,0.3795,-0.1105,-0.0265,-0.4675
-0.1955,0.2355,0.431,-0.02,-0.313,0.3335,0.453,0.495,0.497,0.461,0.3945,0.3805,-0.1095,-0.0235,-0.4635
-0.2015,0.2355,0.437,-0.017,-0.3195,0.3365,0.4565,0.499,0.4995,0.4645,0.4,0.3865,-0.103,-0.015,-0.4655
-0.206,0.2315,0.4375,-0.0125,-0.3215,0.3345,0.455,0.4955,0.4955,0.4585,0.3925,0.3815,-0.1095,-0.019,-0.467
-0.2075,0.2285,0.436,-0.01,-0.3215,0.3325,0.454,0.4925,0.4945,0.458,0.391,0.378,-0.114,-0.0205,-0.4695
-0.21,0.2335,0.444,-0.0115,-0.327,0.339,0.4525,0.4915,0.499,0.4635,0.4035,0.3835,-0.1085,-0.018,-0.4675
-0.211,0.2345,0.4455,-0.0115,-0.328,0.34,0.454,0.4895,0.4955,0.461,0.3915,0.3775,-0.114,-0.0175,-0.4645
-0.1945,0.2345,0.429,-0.02,-0.312,0.332,0.4535,0.4885,0.4905,0.455,0.385,0.373,-0.117,-0.019,-0.4655
-0.1805,0.237,0.4175,-0.028,-0.299,0.3275,0.4485,0.487,0.49,0.4555,0.391,0.375,-0.111,-0.021,-0.4655
-0.188,0.2345,0.4225,-0.023,-0.305,0.3285,0.449,0.4885,0.492,0.455,0.386,0.3725,-0.1135,-0.017,-0.467
-0.1925,0.2365,0.4285,-0.022,-0.3105,0.333,0.4495,0.4915,0.4945,0.4565,0.3935,0.3765,-0.1135,-0.0155,-0.4645
-0.189,0.2375,0.4265,-0.024,-0.3075,0.332,0.448,0.492,0.4945,0.4595,0.397,0.3775,-0.108,-0.017,-0.463
-0.184,0.2375,0.4215,-0.0265,-0.3025,0.33,0.446,0.4925,0.4935,0.4575,0.3925,0.3735,-0.11,-0.0185,-0.463
-0.1865,0.2395,0.4255,-0.0265,-0.306,0.3325,0.45,0.4955,0.4965,0.4595,0.3965,0.376,-0.112,-0.018,-0.4595
-0.1925,0.2395,0.432,-0.0235,-0.312,0.336,0.455,0.4985,0.4995,0.462,0.396,0.38,-0.1085,-0.015,-0.46
-0.2,0.2315,0.4315,-0.0155,-0.3155,0.3315,0.4515,0.495,0.496,0.4575,0.3915,0.3765,-0.1115,-0.0205,-0.465
-0.202,0.2325,0.4345,-0.015,-0.3185,0.334,0.4525,0.4965,0.4985,0.459,0.394,0.3775,-0.1125,-0.0195,-0.467
-0.1915,0.24,0.4315,-0.024,-0.3115,0.336,0.4535,0.497,0.4965,0.4575,0.393,0.38,-0.11,-0.0215,-0.464
-0.1835,0.2425,0.4255,-0.029,-0.3045,0.334,0.448,0.495,0.4915,0.4525,0.387,0.373,-0.106,-0.021,-0.459
-0.185,0.2445,0.4295,-0.0295,-0.3075,0.3375,0.4495,0.4965,0.498,0.4595,0.392,0.377,-0.1045,-0.0175,-0.4595
-0.1965,0.233,0.4295,-0.018,-0.313,0.3315,0.4495,0.4945,0.496,0.456,0.3945,0.3795,-0.1105,-0.0245,-0.466
-0.204,0.225,0.429,-0.0105,-0.3165,0.327,0.4425,0.491,0.4935,0.453,0.3895,0.3725,-0.1105,-0.0235,-0.4705
-0.209,0.216,0.4255,-0.003,-0.3175,0.321,0.448,0.4895,0.4925,0.451,0.384,0.3665,-0.115,-0.0225,-0.469
-0.203,0.2195,0.422,-0.008,-0.3125,0.321,0.4495,0.489,0.489,0.449,0.3875,0.371,-0.1125,-0.021,-0.4695
-0.2015,0.2275,0.429,-0.0125,-0.3155,0.3285,0.4435,0.49,0.4915,0.4565,0.396,0.3835,-0.105,-0.02,-0.4675
-0.216,0.2215,0.4375,-0.0025,-0.327,0.33,0.449,0.493,0.496,0.4595,0.3945,0.379,-0.11,-0.0205,-0.465
-0.2115,0.2255,0.437,-0.007,-0.324,0.3315,0.451,0.496,0.497,0.4645,0.4005,0.3795,-0.1095,-0.022,-0.4675
-0.199,0.229,0.428,-0.015,-0.3135,0.3285,0.45,0.4935,0.49,0.457,0.393,0.383,-0.1095,-0.023,-0.4645
-0.196,0.23,0.4255,-0.0165,-0.311,0.328,0.452,0.493,0.493,0.456,0.393,0.379,-0.113,-0.0195,-0.467
-0.1965,0.2305,0.427,-0.017,-0.3115,0.329,0.4505,0.4945,0.4965,0.4615,0.4055,0.378,-0.111,-0.024,-0.4705
-0.198,0.2275,0.4255,-0.0145,-0.3115,0.3265,0.4455,0.49,0.4905,0.455,0.396,0.3765,-0.1095,-0.0245,-0.4655
-0.1965,0.229,0.425,-0.016,-0.3105,0.327,0.445,0.4895,0.49,0.457,0.3895,0.3775,-0.109,-0.024,-0.464
-0.1955,0.2305,0.426,-0.017,-0.311,0.3285,0.447,0.492,0.494,0.4605,0.393,0.377,-0.1085,-0.025,-0.4665
-0.192,0.2315,0.4235,-0.0195,-0.308,0.3275,0.445,0.4905,0.4935,0.4585,0.3955,0.3765,-0.1105,-0.023,-0.467
-0.191,0.23,0.421,-0.0195,-0.306,0.3255,0.4445,0.4885,0.492,0.457,0.3925,0.3775,-0.1105,-0.022,-0.4675
-0.1955,0.2345,0.43,-0.0195,-0.3125,0.3325,0.447,0.491,0.4935,0.457,0.394,0.38,-0.109,-0.021,-0.4685
-0.1955,0.237,0.433,-0.0205,-0.314,0.335,0.45,0.4945,0.4955,0.46,0.3985,0.3855,-0.1065,-0.019,-0.4675
-0.2005,0.241,0.441,-0.02,-0.3205,0.341,0.452,0.4965,0.4995,0.464,0.398,0.382,-0.1125,-0.012,-0.4665
-0.2,0.245,0.445,-0.0225,-0.3225,0.3455,0.4505,0.4935,0.4985,0.463,0.4015,0.3815,-0.1125,-0.0155,-0.4655
-0.1905,0.24,0.4305,-0.0245,-0.3105,0.3355,0.4495,0.497,0.4995,0.4655,0.407,0.39,-0.1025,-0.023,-0.467
-0.189,0.2425,0.4315,-0.0265,-0.3105,0.3375,0.451,0.5,0.4985,0.4625,0.4025,0.3895,-0.103,-0.018,-0.4695
-0.1945,0.2405,0.435,-0.0225,-0.3145,0.338,0.451,0.4935,0.4965,0.464,0.4195,0.39,-0.1025,-0.018,-0.47
-0.1925,0.239,0.431,-0.023,-0.3115,0.335,0.452,0.492,0.4965,0.465,0.4195,0.3885,-0.105,-0.024,-0.4665
-0.1925,0.2405,0.433,-0.024,-0.3125,0.337,0.4495,0.488,0.4885,0.4545,0.391,0.3785,-0.113,-0.0265,-0.464
-0.201,0.236,0.437,-0.017,-0.319,0.3365,0.4495,0.489,0.4925,0.463,0.4015,0.3805,-0.1095,-0.0205,-0.468
-0.1955,0.2415,0.437,-0.023,-0.316,0.3395,0.455,0.497,0.503,0.47,0.41,0.391,-0.1045,-0.014,-0.47
-0.185,0.2515,0.4365,-0.033,-0.311,0.3445,0.4535,0.4985,0.5035,0.47,0.406,0.39,-0.106,-0.0075,-0.469
-0.172,0.2585,0.4305,-0.043,-0.3015,0.345,0.4495,0.497,0.497,0.4645,0.404,0.386,-0.1065,-0.0045,-0.467
-0.1785,0.2545,0.433,-0.038,-0.306,0.344,0.4545,0.4965,0.4945,0.461,0.3995,0.382,-0.106,-0.0055,-0.4695
-0.189,0.252,0.441,-0.031,-0.315,0.3465,0.458,0.495,0.499,0.465,0.4035,0.38,-0.108,-0.004,-0.472
-0.1875,0.254,0.4415,-0.033,-0.3145,0.348,0.454,0.49,0.4955,0.4595,0.401,0.3795,-0.111,-0.0095,-0.47
-0.1875,0.254,0.4415,-0.033,-0.3145,0.348,0.454,0.4875,0.4975,0.467,0.403,0.3805,-0.1105,-0.0075,-0.472
-0.1805,0.263,0.4435,-0.041,-0.312,0.3535,0.4585,0.4935,0.5025,0.4705,0.4075,0.3855,-0.1085,-0.0055,-0.474
-0.178,0.2655,0.4435,-0.0435,-0.3105,0.355,0.4565,0.4895,0.497,0.462,0.402,0.3795,-0.1135,-0.007,-0.473
-0.189,0.2645,0.4535,-0.0375,-0.3215,0.359,0.459,0.49,0.5005,0.4665,0.4085,0.3815,-0.114,0.001,-0.4755
-0.2075,0.264,0.4715,-0.028,-0.3395,0.368,0.4685,0.5,0.5095,0.474,0.413,0.382,-0.115,-0.0015,-0.4755
-0.195,0.2605,0.4555,-0.0325,-0.325,0.358,0.459,0.494,0.503,0.4695,0.4055,0.3835,-0.1145,-0.0005,-0.475
-0.1765,0.265,0.4415,-0.044,-0.309,0.3535,0.4575,0.488,0.4985,0.4655,0.4035,0.3865,-0.111,0.0025,-0.4785
-0.1805,0.2665,0.447,-0.043,-0.3135,0.357,0.4615,0.4895,0.4995,0.4635,0.4035,0.385,-0.109,-0.0015,-0.478
-0.192,0.2565,0.449,-0.032,-0.3205,0.353,0.4485,0.491,0.498,0.463,0.3995,0.3845,-0.1055,-0.001,-0.476
-0.2015,0.26,0.4615,-0.029,-0.3315,0.361,0.4505,0.486,0.499,0.4625,0.4005,0.374,-0.112,0.009,-0.4755
-0.196,0.266,0.462,-0.0345,-0.329,0.364,0.462,0.4945,0.5035,0.467,0.4075,0.3875,-0.107,0.0145,-0.4785
-0.197,0.263,0.46,-0.0325,-0.3285,0.3615,0.462,0.5075,0.51,0.4735,0.4125,0.4015,-0.098,0.0105,-0.481
-0.199,0.272,0.471,-0.036,-0.335,0.372,0.4645,0.508,0.5135,0.478,0.4225,0.398,-0.0995,0.0185,-0.483
-0.198,0.2775,0.4755,-0.0395,-0.337,0.377,0.4655,0.5135,0.5185,0.4845,0.427,0.4005,-0.0975,0.02,-0.485
-0.1975,0.2775,0.4745,-0.04,-0.3355,0.376,0.4665,0.512,0.517,0.4805,0.421,0.3985,-0.0995,0.018,-0.48
-0.1905,0.2775,0.468,-0.043,-0.3295,0.373,0.4695,0.5125,0.5175,0.48,0.417,0.3965,-0.1015,0.017,-0.4835
-0.1915,0.2725,0.464,-0.0405,-0.3275,0.3685,0.4655,0.511,0.517,0.48,0.4165,0.4025,-0.0935,0.013,-0.481
-0.1915,0.2705,0.4615,-0.039,-0.3265,0.366,0.4675,0.5085,0.513,0.4775,0.415,0.405,-0.0935,0.011,-0.4785
-0.1865,0.275,0.4615,-0.044,-0.324,0.3685,0.4685,0.5125,0.517,0.48,0.4135,0.395,-0.0985,0.0125,-0.485
-0.186,0.278,0.464,-0.0455,-0.325,0.371,0.471,0.5165,0.522,0.484,0.4175,0.402,-0.09,0.013,-0.4845
-0.1895,0.2805,0.4695,-0.0455,-0.3295,0.3755,0.478,0.5185,0.523,0.4855,0.4185,0.4075,-0.0855,0.0145,-0.483
-0.1845,0.282,0.467,-0.0485,-0.326,0.3745,0.477,0.516,0.5225,0.4845,0.4195,0.4025,-0.08,0.017,-0.478
-0.1745,0.2815,0.456,-0.053,-0.315,0.3685,0.4785,0.5205,0.5255,0.489,0.4235,0.403,-0.079,0.0145,-0.4805
-0.174,0.282,0.456,-0.0535,-0.315,0.369,0.479,0.521,0.53,0.492,0.426,0.4055,-0.0825,0.0195,-0.487
-0.1735,0.2765,0.4505,-0.051,-0.312,0.3635,0.4755,0.515,0.5255,0.489,0.4235,0.4045,-0.081,0.0165,-0.488
-0.1685,0.2845,0.453,-0.058,-0.3105,0.369,0.4805,0.5175,0.525,0.487,0.4225,0.404,-0.0825,0.016,-0.489
-0.171,0.2935,0.4645,-0.061,-0.3175,0.379,0.483,0.521,0.531,0.4925,0.428,0.4065,-0.082,0.0215,-0.4905
-0.165,0.3025,0.4675,-0.0685,-0.3165,0.3855,0.4815,0.5265,0.5385,0.502,0.437,0.412,-0.0785,0.0235,-0.4895
-0.156,0.3155,0.4715,-0.0795,-0.3135,0.394,0.4805,0.5315,0.545,0.5075,0.443,0.4185,-0.073,0.033,-0.486
-0.1545,0.3205,0.475,-0.0825,-0.315,0.398,0.4785,0.5315,0.5445,0.5075,0.444,0.422,-0.071,0.0395,-0.488
-0.154,0.326,0.48,-0.0855,-0.317,0.4035,0.4775,0.534,0.547,0.5115,0.4475,0.4295,-0.0665,0.0475,-0.487
-0.1585,0.3245,0.483,-0.0825,-0.321,0.404,0.4765,0.535,0.5515,0.515,0.449,0.4305,-0.067,0.0465,-0.488
-0.1565,0.3325,0.489,-0.088,-0.323,0.411,0.477,0.5365,0.5515,0.5145,0.451,0.4235,-0.0655,0.0475,-0.4925
-0.1465,0.342,0.4885,-0.0975,-0.317,0.415,0.48,0.539,0.5525,0.5165,0.454,0.4285,-0.0615,0.057,-0.4885
-0.1405,0.34,0.4805,-0.0995,-0.3105,0.4105,0.479,0.537,0.5505,0.5135,0.449,0.43,-0.0725,0.0555,-0.49
-0.143,0.3355,0.4785,-0.096,-0.311,0.4075,0.4755,0.538,0.551,0.513,0.4505,0.4295,-0.0685,0.049,-0.4875
-0.145,0.3285,0.4735,-0.0915,-0.309,0.401,0.472,0.543,0.555,0.518,0.4515,0.4335,-0.0575,0.045,-0.4805
-0.1445,0.328,0.4725,-0.091,-0.3085,0.4005,0.466,0.5485,0.5585,0.523,0.454,0.436,-0.054,0.041,-0.478
-0.147,0.3245,0.4715,-0.0885,-0.309,0.398,0.4615,0.552,0.561,0.525,0.4535,0.4375,-0.0505,0.0385,-0.4765
-0.14,0.3205,0.4605,-0.09,-0.3005,0.391,0.458,0.5515,0.558,0.5225,0.4465,0.4315,-0.0485,0.031,-0.4785
-0.1345,0.32,0.4545,-0.0925,-0.2945,0.388,0.4565,0.553,0.5565,0.5215,0.4485,0.431,-0.0465,0.028,-0.479
-0.1295,0.319,0.4485,-0.0945,-0.289,0.384,0.4455,0.55,0.5575,0.5245,0.4535,0.433,-0.0445,0.025,-0.472
-0.12,0.313,0.433,-0.0965,-0.2765,0.3735,0.429,0.544,0.5545,0.524,0.4545,0.436,-0.0365,0.0115,-0.4595
-0.1235,0.301,0.425,-0.0885,-0.274,0.363,0.4195,0.537,0.546,0.5155,0.4455,0.426,-0.045,0.0055,-0.457
-0.1275,0.2945,0.422,-0.0835,-0.275,0.3585,0.403,0.53,0.538,0.5095,0.444,0.4185,-0.0465,0.0045,-0.45
-0.1315,0.2865,0.418,-0.0775,-0.275,0.3525,0.389,0.5205,0.5275,0.5005,0.441,0.42,-0.04,0.001,-0.435
-0.1395,0.2765,0.416,-0.068,-0.278,0.3465,0.3765,0.5115,0.523,0.498,0.4325,0.4165,-0.05,-0.01,-0.428
-0.147,0.259,0.4065,-0.0555,-0.2765,0.333,0.366,0.5005,0.5125,0.49,0.422,0.408,-0.0605,-0.024,-0.423
-0.144,0.25,0.3935,-0.0525,-0.269,0.322,0.366,0.49,0.496,0.4765,0.417,0.4025,-0.066,-0.029,-0.4205
-0.1405,0.2455,0.386,-0.0525,-0.2635,0.316,0.366,0.4845,0.49,0.474,0.4165,0.3985,-0.068,-0.032,-0.4195
-0.1525,0.2365,0.3885,-0.0415,-0.2705,0.3125,0.3725,0.4855,0.4915,0.473,0.4125,0.3935,-0.0715,-0.037,-0.4195
-0.154,0.2375,0.3915,-0.0415,-0.273,0.315,0.374,0.487,0.494,0.4725,0.412,0.398,-0.068,-0.0355,-0.418
-0.1545,0.238,0.3925,-0.0415,-0.2735,0.3155,0.369,0.471,0.48,0.463,0.4055,0.3935,-0.0725,-0.0335,-0.413
-0.1525,0.239,0.391,-0.043,-0.2715,0.315,0.368,0.4665,0.477,0.463,0.4015,0.3955,-0.0715,-0.033,-0.408
-0.157,0.2385,0.3955,-0.0405,-0.2765,0.3175,0.3705,0.4665,0.478,0.463,0.3995,0.4,-0.071,-0.025,-0.4065
-0.173,0.241,0.414,-0.0335,-0.2935,0.328,0.374,0.4585,0.4695,0.4585,0.398,0.3985,-0.075,-0.0165,-0.4065
-0.172,0.253,0.425,-0.04,-0.2985,0.339,0.3695,0.4685,0.4805,0.4675,0.406,0.406,-0.07,-0.009,-0.407
-0.158,0.2645,0.4225,-0.053,-0.29,0.344,0.3685,0.4745,0.4885,0.473,0.412,0.412,-0.0675,-0.0015,-0.4065
-0.1565,0.265,0.422,-0.054,-0.2895,0.3435,0.3685,0.469,0.484,0.4715,0.4115,0.4075,-0.065,0.0015,-0.407
-0.159,0.269,0.428,-0.055,-0.2935,0.349,0.3705,0.467,0.4835,0.47,0.4055,0.4015,-0.0695,0.0085,-0.408
-0.15,0.2785,0.4285,-0.064,-0.289,0.3535,0.368,0.4695,0.485,0.4715,0.409,0.409,-0.0655,0.017,-0.4065
-0.1565,0.283,0.4395,-0.063,-0.298,0.3615,0.367,0.4695,0.4865,0.474,0.415,0.4135,-0.062,0.0215,-0.4075
-0.153,0.2955,0.448,-0.071,-0.3005,0.372,0.3715,0.4685,0.488,0.475,0.417,0.4165,-0.0585,0.0275,-0.406
-0.1395,0.3025,0.442,-0.0815,-0.2905,0.3725,0.37,0.472,0.4935,0.48,0.4245,0.423,-0.0495,0.0315,-0.406
-0.1325,0.312,0.445,-0.0895,-0.289,0.3785,0.371,0.47,0.4905,0.479,0.424,0.426,-0.0485,0.0365,-0.4025
-0.124,0.324,0.448,-0.0995,-0.286,0.386,0.368,0.4695,0.492,0.4825,0.4305,0.431,-0.05,0.0465,-0.3995
-0.135,0.3165,0.452,-0.0905,-0.2935,0.3845,0.364,0.467,0.493,0.4825,0.425,0.423,-0.057,0.0445,-0.4
-0.1475,0.3125,0.46,-0.0825,-0.3035,0.3865,0.366,0.462,0.4815,0.472,0.4125,0.415,-0.064,0.0515,-0.394
-0.1375,0.3075,0.445,-0.085,-0.2915,0.3765,0.365,0.46,0.48,0.469,0.42,0.418,-0.063,0.049,-0.396
-0.135,0.2985,0.4335,-0.0815,-0.2845,0.3665,0.365,0.451,0.474,0.463,0.411,0.414,-0.0655,0.035,-0.3975
-0.145,0.298,0.443,-0.076,-0.294,0.3705,0.3705,0.452,0.4725,0.463,0.406,0.4115,-0.0695,0.037,-0.4015
-0.1475,0.2955,0.4425,-0.0735,-0.295,0.3695,0.373,0.457,0.475,0.464,0.409,0.411,-0.0705,0.033,-0.408
-0.1465,0.299,0.4455,-0.076,-0.296,0.3725,0.383,0.4565,0.4745,0.4625,0.408,0.4085,-0.0735,0.0315,-0.409
-0.1485,0.2935,0.4415,-0.0725,-0.295,0.368,0.3875,0.4605,0.479,0.4635,0.414,0.412,-0.0695,0.023,-0.411
-0.1505,0.291,0.4415,-0.07,-0.296,0.3665,0.386,0.454,0.4755,0.4615,0.4175,0.414,-0.069,0.019,-0.4095
-0.147,0.289,0.4365,-0.0705,-0.292,0.363,0.3955,0.464,0.4805,0.4655,0.41,0.4105,-0.073,0.017,-0.419
-0.148,0.2865,0.4345,-0.069,-0.2915,0.361,0.4055,0.477,0.4915,0.4755,0.4125,0.4145,-0.071,0.0135,-0.4305
-0.1585,0.2925,0.451,-0.0665,-0.305,0.372,0.4155,0.4775,0.494,0.48,0.4185,0.417,-0.0715,0.023,-0.435
-0.155,0.2895,0.4445,-0.067,-0.2995,0.3675,0.421,0.4925,0.5085,0.488,0.424,0.421,-0.0675,0.019,-0.4465
-0.147,0.287,0.434,-0.07,-0.29,0.3605,0.425,0.497,0.515,0.4905,0.425,0.4185,-0.0675,0.0135,-0.4505
-0.1485,0.2765,0.4245,-0.064,-0.2865,0.351,0.432,0.4965,0.5115,0.4885,0.4215,0.415,-0.069,0.005,-0.451
-0.1475,0.27,0.418,-0.061,-0.283,0.344,0.4335,0.504,0.5175,0.496,0.431,0.421,-0.065,-0.003,-0.454
-0.147,0.271,0.4175,-0.062,-0.2825,0.3445,0.433,0.4985,0.5145,0.493,0.425,0.4155,-0.0695,-0.0035,-0.4495
-0.143,0.2765,0.4195,-0.0665,-0.281,0.348,0.433,0.494,0.5085,0.4895,0.429,0.421,-0.067,-0.007,-0.448
-0.1405,0.272,0.413,-0.0655,-0.277,0.3425,0.434,0.4975,0.512,0.4925,0.4245,0.426,-0.0645,-0.01,-0.448
-0.1435,0.2645,0.4085,-0.0605,-0.276,0.337,0.4365,0.498,0.5125,0.4935,0.4145,0.421,-0.0675,-0.0125,-0.45
-0.1465,0.2685,0.4145,-0.0605,-0.2805,0.342,0.436,0.496,0.5055,0.4855,0.4195,0.424,-0.067,-0.01,-0.451
-0.148,0.2645,0.4125,-0.058,-0.2805,0.3385,0.438,0.492,0.507,0.485,0.4205,0.419,-0.067,-0.0115,-0.4515
-0.16,0.253,0.413,-0.046,-0.2865,0.333,0.4335,0.4865,0.503,0.483,0.419,0.4175,-0.066,-0.0105,-0.449
-0.17,0.244,0.414,-0.037,-0.292,0.329,0.4245,0.485,0.502,0.4835,0.4195,0.421,-0.062,-0.009,-0.445
-0.161,0.242,0.4035,-0.04,-0.2825,0.323,0.4325,0.4895,0.5065,0.4885,0.425,0.417,-0.0615,-0.021,-0.451
-0.1465,0.2405,0.387,-0.0465,-0.267,0.314,0.4325,0.4895,0.5005,0.4835,0.4165,0.414,-0.0625,-0.032,-0.4525
-0.1335,0.2475,0.3815,-0.0565,-0.2575,0.315,0.426,0.49,0.5025,0.4855,0.416,0.419,-0.058,-0.031,-0.4525
-0.1415,0.2535,0.395,-0.056,-0.268,0.3245,0.4305,0.4975,0.511,0.493,0.4265,0.4265,-0.054,-0.0205,-0.4555
-0.1455,0.258,0.4035,-0.056,-0.2745,0.3305,0.4245,0.493,0.508,0.4945,0.4295,0.4255,-0.057,-0.0105,-0.4525
-0.1295,0.2635,0.3925,-0.067,-0.261,0.3285,0.4145,0.484,0.5015,0.489,0.4275,0.429,-0.05,-0.008,-0.444
-0.128,0.265,0.393,-0.0685,-0.2605,0.329,0.4105,0.484,0.504,0.492,0.4275,0.4365,-0.0455,-0.011,-0.4385
-0.134,0.2655,0.4,-0.0655,-0.267,0.333,0.414,0.4905,0.5105,0.499,0.4335,0.437,-0.0485,-0.014,-0.441
-0.1365,0.268,0.405,-0.0655,-0.2705,0.337,0.421,0.5,0.5175,0.5075,0.444,0.4445,-0.0435,-0.005,-0.446
-0.136,0.28,0.4165,-0.0715,-0.276,0.3485,0.4195,0.4975,0.517,0.508,0.4455,0.447,-0.0455,0.007,-0.4475
-0.1315,0.296,0.4275,-0.082,-0.2795,0.362,0.42,0.496,0.5165,0.5055,0.444,0.4435,-0.0495,0.0175,-0.447
-0.132,0.299,0.431,-0.0835,-0.2815,0.365,0.424,0.499,0.521,0.509,0.449,0.446,-0.051,0.027,-0.451
-0.14,0.29,0.43,-0.075,-0.285,0.3605,0.4265,0.496,0.518,0.507,0.4475,0.4425,-0.054,0.021,-0.456
-0.1465,0.285,0.4315,-0.069,-0.289,0.3585,0.429,0.496,0.519,0.507,0.447,0.445,-0.052,0.0195,-0.454
-0.1455,0.288,0.4335,-0.071,-0.2895,0.361,0.434,0.4955,0.5165,0.504,0.4445,0.44,-0.06,0.0255,-0.4535
-0.14,0.2885,0.4285,-0.074,-0.284,0.359,0.433,0.491,0.5105,0.496,0.436,0.4295,-0.0665,0.0245,-0.45
-0.134,0.282,0.416,-0.0735,-0.275,0.349,0.427,0.483,0.506,0.4925,0.4315,0.43,-0.0655,0.0175,-0.447
-0.142,0.2775,0.419,-0.0675,-0.2805,0.3485,0.429,0.4765,0.5015,0.49,0.4315,0.4285,-0.067,0.012,-0.447
-0.151,0.27,0.421,-0.059,-0.286,0.3455,0.4285,0.4745,0.4995,0.487,0.433,0.4255,-0.0695,0.0155,-0.4455
-0.1505,0.272,0.422,-0.0605,-0.286,0.347,0.434,0.477,0.4995,0.486,0.4285,0.4195,-0.0735,0.0185,-0.4495
-0.156,0.2805,0.4365,-0.062,-0.2965,0.3585,0.44,0.4835,0.5035,0.4855,0.4255,0.423,-0.077,0.022,-0.4565
-0.1665,0.278,0.4445,-0.0555,-0.3055,0.3615,0.445,0.4885,0.5075,0.4875,0.4265,0.42,-0.084,0.0255,-0.463
-0.1825,0.269,0.4515,-0.043,-0.317,0.3605,0.4545,0.491,0.507,0.485,0.427,0.4145,-0.0915,0.0145,-0.467
-0.195,0.2575,0.453,-0.031,-0.324,0.3555,0.4515,0.4875,0.499,0.4735,0.4165,0.409,-0.099,0.013,-0.4655
-0.193,0.2585,0.4515,-0.0325,-0.3225,0.355,0.4545,0.489,0.497,0.4695,0.407,0.394,-0.109,0.0175,-0.469
-0.2005,0.25,0.4505,-0.0245,-0.3255,0.3505,0.46,0.489,0.492,0.464,0.4015,0.3915,-0.115,0.003,-0.472
-0.209,0.237,0.446,-0.0135,-0.3275,0.342,0.4605,0.483,0.484,0.458,0.3955,0.3905,-0.1165,-0.009,-0.472
-0.209,0.24,0.4485,-0.015,-0.329,0.3445,0.462,0.4795,0.482,0.4565,0.3955,0.388,-0.118,-0.0115,-0.469
-0.2145,0.235,0.449,-0.01,-0.3315,0.342,0.458,0.479,0.48,0.454,0.3915,0.3865,-0.115,-0.0115,-0.4635
-0.213,0.231,0.4435,-0.0085,-0.3285,0.3375,0.4565,0.4795,0.48,0.4545,0.3905,0.39,-0.1085,-0.017,-0.461
-0.2115,0.228,0.4395,-0.008,-0.3255,0.334,0.456,0.4765,0.4765,0.45,0.3865,0.387,-0.1215,-0.0195,-0.4645
-0.2075,0.229,0.4365,-0.0105,-0.322,0.333,0.4555,0.4745,0.4735,0.447,0.384,0.38,-0.1245,-0.017,-0.4625
-0.2055,0.2275,0.433,-0.011,-0.319,0.3305,0.459,0.477,0.4735,0.45,0.386,0.3815,-0.1215,-0.028,-0.4625
-0.214,0.225,0.4385,-0.0055,-0.326,0.332,0.461,0.4765,0.474,0.449,0.382,0.371,-0.1345,-0.0285,-0.4685
-0.213,0.2205,0.4335,-0.0035,-0.3235,0.327,0.4585,0.471,0.4685,0.444,0.382,0.374,-0.131,-0.0385,-0.462
-0.213,0.2085,0.422,0.0025,-0.3175,0.3155,0.462,0.4725,0.469,0.448,0.385,0.3815,-0.1245,-0.049,-0.4635
-0.214,0.214,0.4285,0.0,-0.3215,0.3215,0.4645,0.4745,0.472,0.4505,0.382,0.3775,-0.128,-0.037,-0.4645
-0.213,0.216,0.4295,-0.001,-0.321,0.323,0.46,0.4725,0.4695,0.448,0.3765,0.374,-0.1285,-0.0375,-0.4605
-0.204,0.22,0.4235,-0.0075,-0.314,0.322,0.461,0.4755,0.471,0.4505,0.3835,0.37,-0.127,-0.0385,-0.4635
-0.202,0.223,0.425,-0.0105,-0.3135,0.3245,0.4635,0.4785,0.4745,0.4545,0.39,0.3775,-0.1245,-0.0375,-0.464
-0.2,0.224,0.424,-0.012,-0.312,0.3245,0.465,0.4795,0.477,0.456,0.3905,0.382,-0.122,-0.035,-0.4615
-0.197,0.226,0.4225,-0.0145,-0.31,0.3245,0.4655,0.4785,0.4725,0.451,0.3895,0.3815,-0.1195,-0.035,-0.4605
-0.2095,0.2225,0.4315,-0.006,-0.3205,0.327,0.462,0.477,0.474,0.454,0.3895,0.38,-0.121,-0.029,-0.4635
-0.2035,0.2275,0.431,-0.0115,-0.3175,0.3295,0.459,0.4755,0.4785,0.46,0.395,0.3825,-0.121,-0.029,-0.464
-0.196,0.229,0.4255,-0.0165,-0.311,0.3275,0.46,0.4755,0.4785,0.4595,0.396,0.3825,-0.1195,-0.0345,-0.4625
-0.195,0.229,0.424,-0.017,-0.3095,0.3265,0.4615,0.477,0.476,0.457,0.394,0.3795,-0.1175,-0.03,-0.4605
-0.194,0.229,0.423,-0.0175,-0.3085,0.326,0.4605,0.4765,0.475,0.4565,0.393,0.38,-0.1145,-0.03,-0.4585
-0.192,0.2315,0.4235,-0.0195,-0.3075,0.3275,0.4585,0.473,0.473,0.4535,0.3875,0.375,-0.12,-0.028,-0.4595
-0.1935,0.2305,0.424,-0.0185,-0.3085,0.3275,0.456,0.473,0.472,0.452,0.385,0.375,-0.1275,-0.0275,-0.459
-0.2005,0.2275,0.428,-0.0135,-0.314,0.328,0.4565,0.4735,0.475,0.4555,0.391,0.376,-0.1255,-0.032,-0.4615
-0.1945,0.233,0.4275,-0.019,-0.311,0.3305,0.4575,0.4735,0.4745,0.457,0.396,0.374,-0.1255,-0.034,-0.464
-0.189,0.2345,0.424,-0.0225,-0.3065,0.3295,0.457,0.4735,0.474,0.455,0.4005,0.3785,-0.1225,-0.031,-0.463
-0.192,0.231,0.423,-0.0195,-0.3075,0.3275,0.461,0.4745,0.475,0.455,0.398,0.379,-0.1215,-0.031,-0.463
-0.194,0.2285,0.4225,-0.017,-0.308,0.326,0.4615,0.48,0.479,0.463,0.3985,0.3775,-0.119,-0.034,-0.464
-0.1935,0.2385,0.432,-0.0225,-0.3125,0.3355,0.461,0.476,0.478,0.462,0.4065,0.389,-0.1125,-0.0285,-0.461
-0.194,0.2385,0.4325,-0.022,-0.3135,0.336,0.4625,0.4775,0.4785,0.4595,0.4025,0.3865,-0.1185,-0.0265,-0.463
-0.197,0.2325,0.4295,-0.0175,-0.313,0.3315,0.4615,0.4805,0.481,0.462,0.401,0.381,-0.12,-0.028,-0.463
-0.199,0.235,0.434,-0.0175,-0.3165,0.3345,0.4625,0.477,0.4805,0.458,0.401,0.388,-0.117,-0.0285,-0.458
-0.1995,0.23,0.429,-0.015,-0.314,0.3295,0.459,0.477,0.479,0.455,0.392,0.387,-0.1165,-0.031,-0.4605
-0.2005,0.2305,0.431,-0.0145,-0.3155,0.331,0.461,0.482,0.485,0.4625,0.3975,0.392,-0.1135,-0.0285,-0.4595
-0.195,0.237,0.432,-0.0205,-0.3135,0.335,0.467,0.4915,0.494,0.4715,0.4055,0.3985,-0.1095,-0.025,-0.461
-0.2055,0.238,0.4435,-0.016,-0.3245,0.3415,0.4725,0.496,0.497,0.4725,0.4085,0.3985,-0.113,-0.0255,-0.4655
-0.2245,0.2375,0.462,-0.0065,-0.343,0.35,0.4765,0.497,0.497,0.474,0.4095,0.4045,-0.11,-0.0235,-0.462
-0.209,0.24,0.449,-0.0155,-0.3285,0.3445,0.467,0.4875,0.4925,0.4715,0.4105,0.399,-0.1065,-0.023,-0.461
-0.191,0.2385,0.429,-0.0235,-0.31,0.334,0.4635,0.4825,0.4865,0.463,0.4005,0.389,-0.117,-0.027,-0.4635
-0.1905,0.2405,0.431,-0.0245,-0.311,0.336,0.463,0.4825,0.4855,0.4615,0.4005,0.394,-0.1155,-0.0225,-0.464
-0.189,0.238,0.427,-0.024,-0.308,0.333,0.4605,0.4805,0.4865,0.466,0.407,0.3865,-0.118,-0.0225,-0.466
-0.193,0.2305,0.423,-0.0185,-0.308,0.327,0.4575,0.483,0.484,0.464,0.399,0.379,-0.122,-0.022,-0.468
-0.2065,0.22,0.4265,-0.0065,-0.3165,0.3235,0.4535,0.4795,0.48,0.4615,0.404,0.3815,-0.114,-0.0205,-0.4675
-0.212,0.218,0.4295,-0.0025,-0.321,0.324,0.4545,0.4745,0.4765,0.4555,0.3955,0.376,-0.116,-0.0185,-0.465
-0.206,0.2295,0.4355,-0.0115,-0.321,0.333,0.457,0.48,0.482,0.4615,0.396,0.3795,-0.118,-0.014,-0.467
-0.2095,0.234,0.4435,-0.012,-0.3265,0.339,0.4605,0.482,0.486,0.467,0.4035,0.383,-0.118,-0.015,-0.468
-0.2055,0.2415,0.447,-0.0175,-0.326,0.3445,0.461,0.483,0.4895,0.472,0.4035,0.389,-0.1165,-0.0165,-0.4635
-0.1955,0.2455,0.4415,-0.0245,-0.3185,0.3435,0.464,0.4875,0.494,0.4765,0.4055,0.389,-0.115,-0.017,-0.467
-0.1915,0.248,0.4395,-0.028,-0.3155,0.344,0.4665,0.4835,0.488,0.465,0.401,0.3825,-0.1165,-0.0105,-0.469
-0.1865,0.247,0.433,-0.03,-0.3095,0.34,0.4625,0.4835,0.4915,0.4695,0.4055,0.388,-0.1115,-0.0105,-0.466
-0.1885,0.2415,0.4295,-0.026,-0.309,0.3355,0.465,0.476,0.4845,0.464,0.3975,0.3885,-0.114,-0.014,-0.4685
-0.194,0.2415,0.4355,-0.0235,-0.315,0.3385,0.4695,0.475,0.4805,0.4615,0.402,0.383,-0.1195,-0.015,-0.4735
-0.1865,0.247,0.4335,-0.03,-0.31,0.3405,0.464,0.485,0.494,0.469,0.4055,0.3855,-0.1135,-0.0155,-0.468
-0.1875,0.248,0.4355,-0.03,-0.3115,0.342,0.459,0.4795,0.4925,0.4645,0.398,0.3905,-0.1125,-0.015,-0.462
-0.205,0.2385,0.4435,-0.0165,-0.3245,0.341,0.4685,0.4815,0.4935,0.467,0.4,0.3895,-0.1175,-0.0175,-0.468
-0.2105,0.234,0.4445,-0.0115,-0.3275,0.3395,0.4685,0.4835,0.495,0.4675,0.4015,0.3895,-0.116,-0.0225,-0.468
-0.2225,0.2275,0.4505,-0.0025,-0.3365,0.3395,0.461,0.475,0.49,0.4655,0.3995,0.3855,-0.118,-0.023,-0.465
-0.2245,0.2265,0.4505,-0.0005,-0.3375,0.339,0.4595,0.473,0.4885,0.463,0.4,0.3855,-0.1165,-0.0195,-0.466
-0.2115,0.236,0.4475,-0.012,-0.3295,0.342,0.4585,0.4745,0.4895,0.4635,0.41,0.3895,-0.113,-0.017,-0.466
-0.2025,0.239,0.4415,-0.018,-0.322,0.3405,0.459,0.474,0.4905,0.464,0.4015,0.387,-0.113,-0.0165,-0.4645
-0.202,0.235,0.437,-0.016,-0.3195,0.336,0.4565,0.479,0.493,0.4675,0.3995,0.3875,-0.113,-0.0215,-0.4645
-0.2115,0.234,0.4455,-0.011,-0.3285,0.34,0.459,0.482,0.494,0.469,0.4015,0.386,-0.1145,-0.0175,-0.4645
-0.2155,0.233,0.4485,-0.0085,-0.332,0.341,0.4605,0.483,0.491,0.4655,0.401,0.386,-0.1145,-0.0155,-0.468
-0.2185,0.232,0.4505,-0.0065,-0.3345,0.341,0.4625,0.486,0.49,0.466,0.404,0.3875,-0.116,-0.0175,-0.4725
-0.2145,0.2365,0.451,-0.0105,-0.333,0.344,0.4585,0.484,0.492,0.4685,0.403,0.387,-0.1155,-0.016,-0.469
-0.2135,0.2375,0.4515,-0.012,-0.3325,0.345,0.4585,0.484,0.4925,0.4695,0.4075,0.3865,-0.116,-0.014,-0.471
-0.208,0.238,0.4465,-0.015,-0.3275,0.3425,0.465,0.4875,0.4945,0.471,0.404,0.389,-0.113,-0.0175,-0.47
-0.202,0.24,0.442,-0.0185,-0.322,0.341,0.4655,0.49,0.4945,0.47,0.403,0.3885,-0.1105,-0.02,-0.4665
-0.198,0.245,0.4425,-0.0235,-0.32,0.344,0.464,0.489,0.4925,0.468,0.4025,0.388,-0.1095,-0.016,-0.465
-0.194,0.2455,0.44,-0.0255,-0.317,0.343,0.4605,0.486,0.492,0.47,0.405,0.387,-0.112,-0.0185,-0.465
-0.196,0.246,0.4425,-0.025,-0.3195,0.3445,0.4675,0.487,0.4935,0.47,0.4045,0.3825,-0.116,-0.0175,-0.469
-0.199,0.2455,0.4445,-0.023,-0.322,0.3455,0.4655,0.488,0.4945,0.47,0.401,0.383,-0.114,-0.0185,-0.468
-0.2055,0.241,0.447,-0.0175,-0.326,0.344,0.461,0.481,0.4945,0.472,0.4075,0.3855,-0.113,-0.018,-0.4655
-0.2045,0.2435,0.4475,-0.019,-0.326,0.3455,0.468,0.4785,0.4945,0.472,0.4055,0.385,-0.114,-0.01,-0.4675
-0.2055,0.243,0.449,-0.0185,-0.3275,0.346,0.469,0.4795,0.496,0.474,0.405,0.3875,-0.114,-0.0035,-0.4695
-0.198,0.245,0.443,-0.023,-0.3205,0.3445,0.4655,0.4795,0.493,0.471,0.404,0.386,-0.112,-0.003,-0.469
-0.195,0.2465,0.4415,-0.0255,-0.318,0.344,0.4595,0.477,0.4905,0.4675,0.4005,0.383,-0.1125,-0.0085,-0.468
-0.2025,0.244,0.4465,-0.0205,-0.3245,0.3455,0.467,0.479,0.494,0.471,0.4035,0.388,-0.1115,-0.013,-0.4715
-0.1995,0.2485,0.448,-0.024,-0.324,0.3485,0.4735,0.482,0.494,0.4695,0.4015,0.391,-0.11,-0.0125,-0.474
-0.2035,0.251,0.455,-0.0235,-0.329,0.353,0.4705,0.4835,0.495,0.472,0.4045,0.39,-0.111,-0.01,-0.4725
-0.208,0.247,0.4555,-0.0195,-0.3315,0.3515,0.4695,0.482,0.493,0.47,0.401,0.387,-0.118,-0.0125,-0.471
-0.2055,0.246,0.4515,-0.02,-0.3285,0.349,0.4685,0.481,0.492,0.4695,0.4045,0.3855,-0.1185,-0.0105,-0.4705
-0.1935,0.2505,0.444,-0.0285,-0.3185,0.3475,0.4685,0.487,0.494,0.47,0.402,0.383,-0.1165,-0.012,-0.4715
-0.1925,0.254,0.4465,-0.03,-0.3195,0.3505,0.469,0.4915,0.496,0.4665,0.392,0.383,-0.1195,-0.014,-0.4715
-0.1985,0.255,0.4535,-0.028,-0.326,0.3545,0.469,0.4905,0.499,0.4705,0.403,0.389,-0.1105,-0.013,-0.468
-0.199,0.255,0.4545,-0.028,-0.3265,0.355,0.4675,0.493,0.497,0.4675,0.4015,0.3865,-0.115,-0.011,-0.4695
-0.198,0.2505,0.4485,-0.026,-0.3235,0.35,0.463,0.4965,0.5,0.4725,0.4035,0.395,-0.1135,-0.014,-0.47
-0.1965,0.2525,0.449,-0.028,-0.3225,0.351,0.4625,0.489,0.502,0.4745,0.4125,0.4025,-0.104,-0.013,-0.4675
-0.1975,0.2555,0.453,-0.029,-0.325,0.3545,0.463,0.491,0.499,0.4685,0.406,0.3915,-0.1105,-0.007,-0.4695
-0.1915,0.2555,0.447,-0.032,-0.319,0.3515,0.4575,0.498,0.5025,0.474,0.4025,0.394,-0.1065,-0.009,-0.466
-0.1945,0.2585,0.453,-0.032,-0.3235,0.356,0.456,0.4975,0.508,0.4785,0.4105,0.3985,-0.1045,-0.006,-0.469
-0.196,0.2605,0.456,-0.032,-0.326,0.3585,0.461,0.4985,0.504,0.4765,0.4125,0.397,-0.1055,-0.008,-0.4715
-0.192,0.263,0.455,-0.035,-0.3235,0.3595,0.459,0.4925,0.5035,0.476,0.4115,0.3985,-0.101,-0.0065,-0.4665
-0.19,0.2635,0.453,-0.0365,-0.3215,0.3585,0.456,0.4915,0.505,0.475,0.4105,0.3965,-0.1035,-0.004,-0.468
-0.1985,0.265,0.4635,-0.033,-0.331,0.3645,0.465,0.5045,0.515,0.4875,0.4225,0.408,-0.0995,-0.005,-0.471
-0.215,0.265,0.4805,-0.0245,-0.348,0.373,0.47,0.509,0.522,0.4955,0.429,0.4085,-0.0985,0.0,-0.47
-0.2125,0.2625,0.475,-0.0245,-0.344,0.369,0.4645,0.506,0.5165,0.4885,0.418,0.397,-0.1045,0.0045,-0.4725
-0.1955,0.26,0.4555,-0.032,-0.3255,0.358,0.4675,0.5095,0.519,0.491,0.427,0.412,-0.0965,0.004,-0.478
-0.1855,0.268,0.453,-0.0415,-0.319,0.361,0.471,0.5125,0.522,0.492,0.433,0.411,-0.0985,0.002,-0.482
-0.188,0.273,0.4605,-0.0425,-0.324,0.367,0.4765,0.522,0.5325,0.5,0.4335,0.409,-0.0975,0.0015,-0.483
-0.187,0.269,0.4555,-0.0405,-0.3215,0.3625,0.494,0.544,0.552,0.5145,0.4435,0.418,-0.09,-0.0015,-0.488
-0.175,0.278,0.453,-0.0515,-0.314,0.366,0.5215,0.582,0.5785,0.53,0.452,0.419,-0.0865,0.0015,-0.5085
-0.1675,0.287,0.4545,-0.0595,-0.311,0.371,0.5645,0.636,0.622,0.5585,0.467,0.433,-0.07,0.0115,-0.534
-0.1725,0.288,0.4605,-0.0575,-0.3165,0.3745,0.6195,0.701,0.675,0.593,0.486,0.4425,-0.061,0.012,-0.5615
-0.178,0.2845,0.4625,-0.0525,-0.3205,0.374,0.6575,0.7485,0.712,0.614,0.4915,0.4445,-0.058,0.016,-0.5835
-0.1805,0.2865,0.467,-0.053,-0.3235,0.377,0.686,0.794,0.7615,0.647,0.514,0.461,-0.0405,0.0245,-0.6015
-0.181,0.285,0.466,-0.0515,-0.3235,0.3755,0.7215,0.8535,0.822,0.6935,0.5435,0.4775,-0.0205,0.019,-0.622
-0.177,0.28,0.4565,-0.051,-0.317,0.3685,0.7395,0.897,0.863,0.724,0.5565,0.485,-0.006,0.015,-0.6375
-0.1615,0.2855,0.447,-0.0615,-0.3045,0.3665,0.761,0.9625,0.9305,0.773,0.5895,0.5015,0.0185,0.0145,-0.6575
-0.141,0.2995,0.44,-0.079,-0.2905,0.37,0.7865,1.0305,1.005,0.826,0.615,0.521,0.0415,0.0165,-0.677
-0.1305,0.317,0.4475,-0.093,-0.289,0.3825,0.791,1.0675,1.055,0.865,0.6425,0.5405,0.0615,0.0215,-0.685
-0.1255,0.3285,0.454,-0.1015,-0.2895,0.3915,0.799,1.09,1.0905,0.8945,0.667,0.5565,0.078,0.032,-0.69
-0.1145,0.3455,0.46,-0.115,-0.287,0.403,0.7975,1.0905,1.1105,0.9115,0.6745,0.563,0.084,0.044,-0.694
-0.106,0.3565,0.4625,-0.125,-0.284,0.4095,0.7655,1.0665,1.112,0.9245,0.691,0.574,0.097,0.0445,-0.68
-0.099,0.3605,0.459,-0.1305,-0.279,0.41,0.716,1.0275,1.1065,0.9355,0.708,0.588,0.111,0.046,-0.6595
-0.09,0.3645,0.4545,-0.137,-0.2725,0.41,0.627,0.949,1.0775,0.9295,0.7115,0.5905,0.116,0.0495,-0.6225
-0.09,0.3705,0.4605,-0.14,-0.275,0.4155,0.508,0.833,1.0185,0.912,0.713,0.5935,0.12,0.055,-0.57
-0.0745,0.3945,0.4695,-0.16,-0.272,0.4325,0.3875,0.739,0.9815,0.911,0.73,0.613,0.1405,0.066,-0.52
-0.059,0.4115,0.47,-0.176,-0.2645,0.441,0.264,0.637,0.933,0.9045,0.7435,0.631,0.1645,0.073,-0.4635
-0.0535,0.436,0.4895,-0.191,-0.2715,0.463,0.1435,0.516,0.87,0.889,0.755,0.643,0.174,0.0975,-0.414
-0.04,0.476,0.516,-0.218,-0.278,0.4965,0.032,0.414,0.8285,0.8925,0.7865,0.6705,0.1945,0.132,-0.371
-0.0275,0.522,0.5495,-0.247,-0.2885,0.536,-0.062,0.332,0.809,0.9105,0.825,0.7025,0.2205,0.1705,-0.3385
-0.02,0.584,0.604,-0.282,-0.312,0.594,-0.1485,0.2355,0.773,0.9115,0.8515,0.729,0.234,0.226,-0.306
-0.0115,0.6375,0.649,-0.313,-0.33,0.6435,-0.248,0.113,0.7025,0.8915,0.8675,0.753,0.246,0.2695,-0.2595
0.0065,0.6935,0.687,-0.35,-0.34,0.6905,-0.363,-0.017,0.6265,0.8695,0.8855,0.773,0.2625,0.3105,-0.2145
0.014,0.7525,0.7385,-0.383,-0.362,0.746,-0.498,-0.1715,0.536,0.841,0.909,0.797,0.279,0.359,-0.1585
0.024,0.8045,0.7805,-0.414,-0.378,0.7925,-0.6345,-0.3,0.4675,0.8295,0.94,0.8295,0.3035,0.391,-0.1015
0.046,0.85,0.8045,-0.448,-0.3795,0.8275,-0.748,-0.3795,0.4415,0.848,0.979,0.8695,0.344,0.424,-0.0615
0.07,0.902,0.832,-0.486,-0.3805,0.867,-0.8705,-0.474,0.4115,0.866,1.0225,0.911,0.3885,0.4605,-0.015
0.0995,0.9525,0.8535,-0.5255,-0.377,0.903,-0.9995,-0.599,0.335,0.8565,1.0545,0.947,0.4215,0.489,0.0395
0.1235,0.998,0.8745,-0.5605,-0.3755,0.9365,-1.14,-0.7235,0.252,0.8425,1.0835,0.9845,0.456,0.525,0.093
0.153,1.0495,0.8965,-0.601,-0.372,0.9735,-1.289,-0.824,0.2115,0.862,1.136,1.035,0.505,0.559,0.1435
0.181,1.097,0.9165,-0.6385,-0.368,1.007,-1.4175,-0.9315,0.165,0.872,1.171,1.0715,0.541,0.596,0.1995
0.195,1.1385,0.943,-0.6665,-0.374,1.041,-1.5495,-1.04,0.113,0.869,1.1995,1.103,0.5705,0.636,0.2575
0.223,1.1775,0.9545,-0.7,-0.3655,1.066,-1.6775,-1.121,0.0845,0.8915,1.25,1.15,0.6165,0.657,0.3065
0.259,1.201,0.942,-0.7295,-0.3415,1.072,-1.791,-1.1825,0.0585,0.9085,1.285,1.1915,0.6625,0.6645,0.356
0.297,1.2075,0.91,-0.752,-0.3065,1.059,-1.893,-1.2185,0.0435,0.936,1.324,1.2315,0.711,0.6555,0.3965
0.3405,1.203,0.862,-0.7715,-0.2605,1.033,-1.976,-1.241,0.039,0.972,1.366,1.2715,0.7665,0.6455,0.432
0.375,1.201,0.826,-0.788,-0.2255,1.014,-2.0455,-1.268,0.0245,0.991,1.393,1.3105,0.8175,0.6425,0.4685
0.4075,1.2105,0.803,-0.8085,-0.198,1.007,-2.1,-1.3095,0.0065,1.013,1.4275,1.345,0.86,0.6375,0.5
0.429,1.2095,0.7805,-0.819,-0.176,0.9955,-2.143,-1.3485,-0.0145,1.029,1.4515,1.3805,0.898,0.6335,0.533
0.449,1.238,0.789,-0.843,-0.17,1.014,-2.1825,-1.392,-0.037,1.0415,1.488,1.423,0.937,0.6545,0.5595
0.4715,1.278,0.807,-0.8745,-0.1675,1.0425,-2.226,-1.4635,-0.077,1.0405,1.53,1.463,0.9785,0.686,0.5955
0.4795,1.3025,0.8225,-0.891,-0.1715,1.063,-2.2665,-1.542,-0.1395,1.019,1.547,1.4905,1.008,0.7045,0.639
0.498,1.3275,0.8295,-0.9125,-0.166,1.0785,-2.296,-1.6135,-0.203,0.9935,1.56,1.506,1.0225,0.722,0.668
0.5155,1.354,0.8385,-0.9345,-0.1615,1.0965,-2.3175,-1.6675,-0.2585,0.973,1.5765,1.536,1.0485,0.7445,0.6915
0.5315,1.387,0.855,-0.959,-0.1615,1.1215,-2.3315,-1.713,-0.316,0.947,1.5865,1.56,1.072,0.767,0.7105
0.5505,1.417,0.866,-0.9835,-0.1575,1.142,-2.36,-1.768,-0.366,0.928,1.6115,1.5845,1.1,0.787,0.728
0.559,1.4445,0.8855,-1.0015,-0.1635,1.165,-2.396,-1.837,-0.4265,0.9055,1.6345,1.6145,1.13,0.8035,0.759
0.57,1.4595,0.8895,-1.0145,-0.1595,1.1745,-2.428,-1.9005,-0.5,0.8675,1.639,1.638,1.1515,0.813,0.7935
