i,ii,iii,avr,avl,avf,v1,v2,v3,v4,v5,v6,vx,vy,vz
-0.046,0.0705,0.117,-0.012,-0.0815,0.0935,0.1155,0.0825,0.2055,0.211,0.1695,0.1305,0.051,0.151,-0.2515
-0.044,0.076,0.12,-0.0155,-0.0815,0.098,0.113,0.0835,0.2015,0.208,0.1675,0.1275,0.0505,0.1515,-0.2505
-0.043,0.0785,0.121,-0.0175,-0.0815,0.1,0.112,0.0825,0.203,0.207,0.1675,0.1275,0.05,0.152,-0.251
-0.042,0.078,0.12,-0.018,-0.0805,0.099,0.1125,0.0825,0.2015,0.2065,0.1645,0.125,0.046,0.147,-0.253
-0.039,0.0815,0.1205,-0.0205,-0.0795,0.101,0.115,0.084,0.2035,0.205,0.1645,0.1235,0.0445,0.145,-0.2545
-0.042,0.0775,0.119,-0.0175,-0.0805,0.0985,0.1155,0.086,0.205,0.208,0.1655,0.124,0.0435,0.146,-0.2555
-0.046,0.074,0.12,-0.0135,-0.083,0.097,0.1125,0.0845,0.205,0.206,0.163,0.122,0.042,0.152,-0.256
-0.0445,0.0725,0.1175,-0.014,-0.0805,0.095,0.11,0.085,0.2045,0.2045,0.164,0.122,0.044,0.149,-0.2565
-0.045,0.0705,0.116,-0.0125,-0.08,0.093,0.1105,0.0885,0.2075,0.2075,0.1655,0.1245,0.046,0.147,-0.257
-0.0465,0.071,0.1175,-0.012,-0.082,0.094,0.1125,0.0895,0.209,0.2075,0.164,0.1225,0.045,0.1515,-0.2585
-0.047,0.0705,0.1175,-0.0115,-0.0825,0.094,0.1125,0.089,0.207,0.2075,0.1615,0.1195,0.0425,0.152,-0.2605
-0.049,0.0665,0.1155,-0.0085,-0.082,0.091,0.1145,0.0915,0.208,0.209,0.163,0.121,0.043,0.151,-0.259
-0.0465,0.063,0.11,-0.008,-0.078,0.0865,0.113,0.093,0.2085,0.208,0.1635,0.1225,0.045,0.1475,-0.2585
-0.047,0.063,0.11,-0.0075,-0.0785,0.0865,0.11,0.095,0.2115,0.209,0.165,0.1225,0.0455,0.146,-0.259
-0.05,0.0615,0.1115,-0.0055,-0.0805,0.0865,0.1095,0.095,0.2115,0.2095,0.1645,0.1205,0.043,0.1465,-0.259
-0.05,0.063,0.1135,-0.0065,-0.0815,0.0885,0.109,0.093,0.211,0.209,0.162,0.119,0.0425,0.148,-0.26
-0.048,0.0685,0.117,-0.01,-0.0825,0.0925,0.109,0.094,0.2125,0.208,0.1625,0.119,0.042,0.149,-0.2605
-0.0455,0.077,0.1225,-0.0155,-0.084,0.1,0.107,0.0935,0.211,0.207,0.16,0.1165,0.04,0.154,-0.263
-0.0475,0.0805,0.1275,-0.016,-0.0875,0.104,0.1045,0.093,0.211,0.2055,0.1595,0.1145,0.0385,0.157,-0.267
-0.051,0.0755,0.1265,-0.012,-0.089,0.101,0.1075,0.0925,0.211,0.2035,0.159,0.1135,0.0375,0.1555,-0.266
-0.0515,0.0765,0.128,-0.012,-0.0895,0.1025,0.109,0.098,0.2155,0.2065,0.1605,0.1145,0.039,0.1585,-0.2675
-0.0485,0.083,0.132,-0.017,-0.09,0.1075,0.109,0.1005,0.217,0.2075,0.163,0.1165,0.0405,0.164,-0.2705
-0.0465,0.0885,0.135,-0.0205,-0.0905,0.112,0.11,0.098,0.216,0.208,0.162,0.1155,0.041,0.163,-0.273
-0.045,0.0915,0.137,-0.023,-0.091,0.114,0.1075,0.099,0.217,0.2095,0.162,0.114,0.041,0.1555,-0.2755
-0.0455,0.0925,0.138,-0.0235,-0.0915,0.115,0.109,0.103,0.22,0.2105,0.1645,0.1145,0.043,0.16,-0.273
-0.049,0.09,0.139,-0.0205,-0.0935,0.1145,0.1115,0.1085,0.225,0.2125,0.167,0.1155,0.042,0.162,-0.274
-0.046,0.091,0.1375,-0.0225,-0.0915,0.1145,0.1095,0.1065,0.2255,0.212,0.166,0.115,0.0405,0.1585,-0.2745
-0.043,0.0905,0.1335,-0.0235,-0.0875,0.112,0.111,0.11,0.226,0.212,0.1655,0.1135,0.0405,0.164,-0.273
-0.0445,0.0875,0.132,-0.0215,-0.0885,0.11,0.113,0.116,0.2295,0.214,0.167,0.115,0.0395,0.1615,-0.2745
-0.0435,0.0915,0.135,-0.024,-0.0885,0.113,0.112,0.1175,0.2325,0.2155,0.1685,0.1155,0.043,0.158,-0.2765
-0.042,0.092,0.1345,-0.025,-0.088,0.1135,0.1135,0.1195,0.232,0.2135,0.1665,0.1105,0.043,0.16,-0.2755
-0.0465,0.0895,0.1365,-0.021,-0.0915,0.113,0.118,0.124,0.2365,0.2155,0.1665,0.11,0.041,0.162,-0.274
-0.0485,0.0855,0.134,-0.018,-0.091,0.1095,0.118,0.1285,0.241,0.2205,0.17,0.1115,0.0415,0.1595,-0.2755
-0.0475,0.0825,0.13,-0.017,-0.089,0.1065,0.116,0.129,0.2405,0.2195,0.17,0.1115,0.0435,0.1575,-0.276
-0.048,0.082,0.1305,-0.017,-0.089,0.1065,0.116,0.1285,0.2395,0.218,0.1695,0.1115,0.044,0.156,-0.277
-0.0475,0.086,0.133,-0.019,-0.09,0.1095,0.1145,0.13,0.241,0.2195,0.172,0.1135,0.045,0.1565,-0.2805
-0.0505,0.0865,0.1365,-0.0175,-0.0935,0.1115,0.117,0.131,0.2445,0.2205,0.1725,0.115,0.047,0.159,-0.282
-0.05,0.087,0.1365,-0.018,-0.093,0.1115,0.1185,0.134,0.2455,0.22,0.1705,0.114,0.0465,0.1625,-0.2825
-0.0555,0.0865,0.142,-0.0155,-0.0985,0.1145,0.1205,0.1355,0.247,0.222,0.171,0.114,0.045,0.1685,-0.285
-0.0585,0.0805,0.1385,-0.0105,-0.098,0.1095,0.127,0.1375,0.249,0.2225,0.1705,0.113,0.0435,0.16,-0.285
-0.0495,0.083,0.1325,-0.0165,-0.0905,0.1075,0.124,0.142,0.2495,0.22,0.1695,0.1125,0.045,0.157,-0.2845
-0.0475,0.0845,0.132,-0.018,-0.0895,0.108,0.122,0.142,0.2505,0.2195,0.169,0.11,0.043,0.159,-0.2865
-0.045,0.0865,0.1315,-0.0205,-0.0885,0.109,0.1205,0.146,0.253,0.2195,0.17,0.1105,0.04,0.1555,-0.2885
-0.0455,0.0925,0.1385,-0.0235,-0.092,0.1155,0.1235,0.1475,0.256,0.2225,0.169,0.111,0.0395,0.162,-0.29
-0.05,0.0905,0.1405,-0.02,-0.095,0.1155,0.1305,0.149,0.259,0.224,0.1685,0.111,0.0385,0.1695,-0.292
-0.05,0.0885,0.139,-0.019,-0.0945,0.1135,0.1295,0.1525,0.262,0.2255,0.171,0.112,0.0385,0.1685,-0.2945
-0.0485,0.087,0.1355,-0.019,-0.092,0.111,0.1315,0.158,0.2665,0.227,0.1715,0.1145,0.038,0.1625,-0.2965
-0.048,0.0855,0.1335,-0.018,-0.0905,0.1095,0.133,0.161,0.2685,0.227,0.1725,0.115,0.0375,0.161,-0.2975
-0.052,0.0825,0.135,-0.015,-0.0935,0.1085,0.1355,0.1605,0.272,0.2295,0.174,0.1165,0.0375,0.162,-0.2985
-0.0525,0.084,0.1365,-0.015,-0.0945,0.11,0.1345,0.1645,0.276,0.2325,0.177,0.122,0.043,0.163,-0.2995
-0.0495,0.084,0.1335,-0.017,-0.0915,0.1085,0.1355,0.1665,0.275,0.2325,0.1765,0.117,0.042,0.1605,-0.2995
-0.051,0.078,0.129,-0.013,-0.09,0.1035,0.1435,0.1725,0.279,0.234,0.1755,0.113,0.0375,0.1585,-0.301
-0.0525,0.0755,0.128,-0.0115,-0.09,0.102,0.144,0.1775,0.2835,0.238,0.18,0.1185,0.042,0.1575,-0.3035
-0.053,0.074,0.127,-0.0105,-0.09,0.1005,0.1455,0.1765,0.285,0.2375,0.1795,0.118,0.0405,0.1555,-0.3055
-0.0525,0.0745,0.127,-0.011,-0.0895,0.1005,0.149,0.18,0.2865,0.2365,0.178,0.116,0.039,0.16,-0.3065
-0.05,0.0775,0.1275,-0.0135,-0.0885,0.1025,0.1495,0.1825,0.2895,0.2395,0.181,0.1165,0.041,0.158,-0.3055
-0.0495,0.0785,0.1285,-0.014,-0.0885,0.1035,0.1495,0.1865,0.2935,0.241,0.1815,0.1175,0.043,0.155,-0.308
-0.053,0.081,0.134,-0.0135,-0.093,0.1075,0.149,0.1865,0.2915,0.238,0.1795,0.1145,0.042,0.159,-0.311
-0.053,0.082,0.135,-0.014,-0.094,0.1085,0.1495,0.182,0.288,0.234,0.173,0.1085,0.038,0.16,-0.31
-0.056,0.0765,0.133,-0.01,-0.094,0.1045,0.1505,0.186,0.29,0.236,0.174,0.1095,0.0385,0.157,-0.31
-0.06,0.0765,0.1365,-0.008,-0.098,0.1065,0.154,0.1915,0.2935,0.236,0.1755,0.109,0.037,0.157,-0.3135
-0.059,0.0815,0.1405,-0.011,-0.0995,0.111,0.1555,0.1935,0.294,0.2355,0.173,0.104,0.0315,0.162,-0.3175
-0.0595,0.0855,0.145,-0.0125,-0.102,0.1155,0.157,0.1955,0.2935,0.2345,0.1715,0.105,0.03,0.164,-0.3185
-0.0565,0.091,0.147,-0.017,-0.1015,0.119,0.158,0.197,0.2965,0.2345,0.1725,0.105,0.03,0.166,-0.3195
-0.053,0.0925,0.146,-0.0195,-0.0995,0.1195,0.1575,0.1985,0.299,0.237,0.1735,0.1035,0.0295,0.1665,-0.3225
-0.059,0.0895,0.149,-0.015,-0.104,0.1195,0.163,0.203,0.3025,0.2395,0.1735,0.104,0.0305,0.1685,-0.3245
-0.065,0.0855,0.1505,-0.01,-0.107,0.118,0.167,0.2065,0.307,0.242,0.1755,0.1045,0.029,0.1695,-0.3265
-0.0655,0.086,0.151,-0.01,-0.108,0.1185,0.167,0.208,0.3075,0.2425,0.1735,0.104,0.027,0.1685,-0.329
-0.0655,0.0865,0.152,-0.01,-0.1085,0.119,0.171,0.211,0.31,0.2435,0.176,0.103,0.028,0.1665,-0.332
-0.061,0.087,0.1475,-0.013,-0.104,0.1175,0.173,0.214,0.314,0.2445,0.178,0.105,0.0285,0.164,-0.3325
-0.0625,0.085,0.1475,-0.011,-0.105,0.116,0.1765,0.2175,0.316,0.2455,0.177,0.106,0.0285,0.167,-0.3335
-0.067,0.0785,0.146,-0.0055,-0.1065,0.112,0.1795,0.2205,0.3175,0.245,0.1765,0.106,0.0255,0.1665,-0.3335
-0.069,0.073,0.142,-0.0015,-0.1055,0.1075,0.1825,0.2235,0.318,0.246,0.174,0.1065,0.0255,0.1595,-0.3345
-0.0705,0.072,0.1425,-0.0005,-0.1065,0.1075,0.186,0.2255,0.319,0.2455,0.1745,0.1055,0.025,0.161,-0.336
-0.0665,0.0755,0.142,-0.004,-0.1045,0.109,0.184,0.23,0.3215,0.246,0.1765,0.106,0.023,0.1645,-0.3375
-0.064,0.0765,0.1405,-0.006,-0.102,0.1085,0.1835,0.23,0.323,0.245,0.175,0.106,0.0235,0.164,-0.338
-0.0685,0.0745,0.143,-0.0025,-0.1055,0.1085,0.189,0.228,0.321,0.2415,0.1715,0.102,0.021,0.1635,-0.3385
-0.072,0.075,0.147,-0.001,-0.109,0.111,0.188,0.2305,0.32,0.2405,0.17,0.0995,0.0205,0.163,-0.3405
-0.0705,0.074,0.145,-0.0015,-0.1075,0.1095,0.186,0.23,0.32,0.2385,0.169,0.0995,0.0195,0.1655,-0.3405
-0.073,0.0715,0.1445,0.001,-0.1085,0.108,0.186,0.228,0.318,0.2375,0.1655,0.098,0.018,0.1725,-0.3395
-0.0725,0.0765,0.149,-0.0015,-0.1105,0.1125,0.1845,0.2255,0.315,0.2315,0.162,0.0925,0.0155,0.1705,-0.34
-0.067,0.084,0.151,-0.008,-0.1085,0.1175,0.183,0.226,0.314,0.228,0.1595,0.091,0.012,0.1635,-0.3405
-0.0665,0.088,0.1545,-0.0105,-0.1105,0.121,0.18,0.225,0.3135,0.2285,0.157,0.0895,0.0095,0.168,-0.342
-0.0715,0.09,0.162,-0.009,-0.1165,0.126,0.181,0.2255,0.313,0.226,0.1555,0.088,0.005,0.17,-0.343
-0.073,0.0935,0.1665,-0.01,-0.1195,0.13,0.1805,0.225,0.3125,0.225,0.153,0.0865,0.004,0.1755,-0.343
-0.071,0.097,0.168,-0.013,-0.1195,0.1325,0.179,0.2225,0.3105,0.223,0.1505,0.08,-0.002,0.1785,-0.3465
-0.072,0.1,0.172,-0.014,-0.122,0.1365,0.182,0.2245,0.312,0.2245,0.15,0.079,-0.005,0.178,-0.349
-0.072,0.1025,0.1745,-0.015,-0.123,0.1385,0.1835,0.225,0.3125,0.224,0.1495,0.077,-0.0055,0.182,-0.349
-0.0695,0.101,0.1705,-0.0155,-0.12,0.136,0.1845,0.225,0.311,0.2215,0.1485,0.0745,-0.0085,0.182,-0.349
-0.0725,0.1005,0.173,-0.014,-0.1225,0.1365,0.185,0.226,0.3105,0.2225,0.146,0.074,-0.0085,0.183,-0.349
-0.0725,0.105,0.177,-0.016,-0.1245,0.141,0.1865,0.23,0.312,0.222,0.1465,0.075,-0.0075,0.186,-0.35
-0.074,0.099,0.173,-0.012,-0.1235,0.1365,0.1905,0.226,0.309,0.217,0.1415,0.071,-0.01,0.1825,-0.348
-0.0785,0.092,0.17,-0.0065,-0.124,0.131,0.193,0.222,0.3055,0.214,0.136,0.0665,-0.015,0.1775,-0.3475
-0.0795,0.0915,0.171,-0.006,-0.125,0.1315,0.1935,0.224,0.308,0.2135,0.137,0.0665,-0.0145,0.1745,-0.349
-0.0835,0.0915,0.175,-0.0035,-0.129,0.133,0.1935,0.2225,0.3055,0.212,0.1365,0.0655,-0.015,0.175,-0.3485
-0.081,0.0965,0.177,-0.0075,-0.1285,0.137,0.193,0.221,0.3035,0.2105,0.1345,0.067,-0.015,0.1835,-0.3485
-0.078,0.1005,0.178,-0.011,-0.1275,0.1395,0.1905,0.2175,0.2995,0.206,0.1315,0.064,-0.015,0.179,-0.3485
-0.077,0.1045,0.1815,-0.0135,-0.1285,0.143,0.187,0.2155,0.295,0.2035,0.1305,0.0635,-0.0175,0.172,-0.3485
-0.077,0.1055,0.182,-0.014,-0.129,0.144,0.188,0.2115,0.291,0.198,0.1255,0.061,-0.0195,0.171,-0.3455
-0.0765,0.1075,0.1835,-0.0155,-0.13,0.1455,0.19,0.211,0.289,0.1935,0.122,0.058,-0.023,0.173,-0.3445
-0.072,0.1115,0.1835,-0.0195,-0.1275,0.1475,0.1885,0.212,0.2895,0.1945,0.1205,0.06,-0.0235,0.1795,-0.344
-0.072,0.1115,0.1835,-0.0195,-0.1275,0.1475,0.187,0.2075,0.2855,0.1915,0.12,0.06,-0.024,0.1815,-0.3435
-0.081,0.1085,0.1895,-0.0135,-0.135,0.149,0.185,0.2055,0.2815,0.188,0.1175,0.056,-0.028,0.185,-0.344
-0.086,0.1045,0.1905,-0.009,-0.1375,0.1475,0.1825,0.2035,0.2785,0.185,0.1135,0.0535,-0.028,0.1845,-0.3445
-0.0855,0.1025,0.1885,-0.008,-0.137,0.1455,0.183,0.1995,0.2755,0.1825,0.112,0.0535,-0.027,0.19,-0.343
-0.086,0.1005,0.1865,-0.007,-0.136,0.1435,0.1845,0.196,0.2705,0.18,0.1095,0.051,-0.0295,0.193,-0.341
-0.078,0.1035,0.1815,-0.0125,-0.1295,0.1425,0.1845,0.196,0.2695,0.179,0.1105,0.05,-0.0295,0.1885,-0.34
-0.08,0.104,0.184,-0.0125,-0.1315,0.144,0.182,0.1945,0.2685,0.179,0.111,0.0505,-0.03,0.184,-0.339
-0.077,0.1065,0.1835,-0.0145,-0.13,0.145,0.18,0.191,0.2635,0.1765,0.1095,0.0515,-0.028,0.184,-0.339
-0.0745,0.107,0.181,-0.016,-0.1275,0.144,0.1805,0.189,0.262,0.1775,0.11,0.054,-0.0265,0.1845,-0.3375
-0.0815,0.1065,0.188,-0.0125,-0.134,0.147,0.1805,0.185,0.2595,0.1745,0.1075,0.0525,-0.031,0.1875,-0.3365
-0.08,0.1035,0.1835,-0.0115,-0.1315,0.1435,0.1785,0.1815,0.2565,0.171,0.107,0.0525,-0.0305,0.1875,-0.3345
-0.0775,0.1015,0.179,-0.012,-0.128,0.1405,0.176,0.18,0.252,0.1715,0.1075,0.0555,-0.028,0.19,-0.332
-0.0785,0.1065,0.185,-0.0135,-0.1315,0.1455,0.1725,0.176,0.2495,0.169,0.1065,0.0545,-0.0275,0.1965,-0.331
-0.0825,0.103,0.185,-0.01,-0.1335,0.144,0.172,0.1715,0.247,0.1665,0.107,0.053,-0.028,0.1905,-0.331
-0.0805,0.106,0.1865,-0.0125,-0.133,0.146,0.171,0.1685,0.2435,0.164,0.106,0.053,-0.028,0.193,-0.3285
-0.0775,0.108,0.186,-0.015,-0.1315,0.147,0.1705,0.1645,0.24,0.163,0.1025,0.052,-0.03,0.193,-0.3265
-0.0795,0.109,0.1885,-0.015,-0.1335,0.1485,0.1655,0.1585,0.2325,0.1585,0.1,0.052,-0.0315,0.1935,-0.326
-0.081,0.1085,0.189,-0.0135,-0.135,0.1485,0.1635,0.1525,0.228,0.156,0.099,0.052,-0.0315,0.1945,-0.323
-0.0765,0.1085,0.185,-0.016,-0.1305,0.1465,0.161,0.149,0.2255,0.156,0.0985,0.052,-0.03,0.1875,-0.3195
-0.0745,0.111,0.1855,-0.018,-0.1295,0.148,0.1575,0.1455,0.221,0.1515,0.099,0.0525,-0.0285,0.1875,-0.3185
-0.0715,0.115,0.1865,-0.0215,-0.129,0.1505,0.1575,0.142,0.217,0.15,0.0995,0.053,-0.0295,0.1915,-0.3165
-0.066,0.12,0.186,-0.0265,-0.126,0.153,0.152,0.1365,0.2125,0.148,0.097,0.054,-0.0295,0.1985,-0.3125
-0.0675,0.1195,0.187,-0.0255,-0.127,0.153,0.151,0.1295,0.2075,0.144,0.0945,0.0525,-0.031,0.198,-0.312
-0.0655,0.122,0.1875,-0.028,-0.1265,0.155,0.147,0.1245,0.201,0.1405,0.09,0.05,-0.0325,0.1945,-0.31
-0.064,0.12,0.184,-0.0275,-0.124,0.152,0.143,0.117,0.196,0.138,0.09,0.05,-0.0325,0.1935,-0.3065
-0.0635,0.121,0.184,-0.0285,-0.1235,0.1525,0.14,0.1155,0.1955,0.1395,0.0935,0.054,-0.029,0.1945,-0.303
-0.0635,0.121,0.184,-0.0285,-0.1235,0.1525,0.137,0.1105,0.1905,0.1365,0.0895,0.053,-0.0295,0.194,-0.2995
-0.064,0.12,0.1835,-0.0275,-0.1235,0.1515,0.1365,0.103,0.185,0.1335,0.087,0.052,-0.029,0.193,-0.2975
-0.0635,0.121,0.184,-0.0285,-0.1235,0.1525,0.134,0.1015,0.182,0.133,0.0875,0.055,-0.027,0.1945,-0.2945
-0.064,0.1155,0.1795,-0.0255,-0.1215,0.1475,0.1335,0.0965,0.1765,0.1315,0.087,0.054,-0.0285,0.194,-0.292
-0.0605,0.1125,0.173,-0.026,-0.116,0.1425,0.129,0.0915,0.1725,0.13,0.086,0.056,-0.027,0.1885,-0.2885
-0.065,0.112,0.177,-0.023,-0.121,0.1445,0.1265,0.085,0.166,0.125,0.0835,0.0545,-0.029,0.19,-0.285
-0.0645,0.114,0.1785,-0.0245,-0.1215,0.146,0.1215,0.075,0.158,0.1185,0.079,0.0515,-0.0285,0.1945,-0.2805
-0.06,0.117,0.1765,-0.0285,-0.118,0.147,0.113,0.071,0.1535,0.1175,0.077,0.053,-0.0255,0.1965,-0.2755
-0.057,0.121,0.1775,-0.0315,-0.117,0.149,0.1115,0.0685,0.148,0.1175,0.075,0.054,-0.0255,0.198,-0.273
-0.052,0.123,0.1755,-0.0355,-0.1135,0.149,0.1075,0.0565,0.1415,0.1135,0.071,0.053,-0.0245,0.202,-0.269
-0.057,0.127,0.184,-0.035,-0.1205,0.156,0.1005,0.0505,0.1345,0.1095,0.071,0.052,-0.026,0.2075,-0.2655
-0.061,0.1265,0.187,-0.0325,-0.124,0.1565,0.098,0.046,0.1285,0.1065,0.0695,0.0505,-0.0295,0.2,-0.264
-0.058,0.1245,0.1825,-0.033,-0.12,0.1535,0.096,0.038,0.125,0.105,0.066,0.048,-0.0305,0.202,-0.259
-0.049,0.1315,0.181,-0.041,-0.1145,0.156,0.0895,0.0355,0.12,0.104,0.067,0.0495,-0.0275,0.206,-0.257
-0.0425,0.1365,0.1795,-0.047,-0.111,0.158,0.0855,0.0315,0.1165,0.102,0.069,0.051,-0.0245,0.2035,-0.254
-0.04,0.138,0.178,-0.049,-0.109,0.158,0.082,0.024,0.1105,0.0995,0.068,0.0515,-0.023,0.2055,-0.25
-0.0395,0.1345,0.174,-0.0475,-0.1065,0.1545,0.0795,0.0205,0.1065,0.099,0.07,0.056,-0.0215,0.2005,-0.248
-0.04,0.129,0.169,-0.0445,-0.1045,0.149,0.0775,0.018,0.1045,0.0975,0.0695,0.0545,-0.023,0.199,-0.2425
-0.0385,0.125,0.1635,-0.043,-0.101,0.1445,0.0735,0.0135,0.0985,0.095,0.0665,0.0545,-0.021,0.193,-0.236
-0.037,0.123,0.16,-0.043,-0.098,0.1415,0.07,0.008,0.094,0.0955,0.0665,0.0585,-0.0165,0.188,-0.2315
-0.0365,0.1205,0.1565,-0.0415,-0.0965,0.1385,0.067,0.002,0.09,0.0955,0.0665,0.0595,-0.0135,0.184,-0.228
-0.0355,0.1205,0.156,-0.042,-0.0955,0.138,0.064,-0.003,0.085,0.0925,0.066,0.061,-0.0105,0.1875,-0.2245
-0.0315,0.1185,0.15,-0.0435,-0.0905,0.1345,0.06,-0.008,0.0805,0.089,0.064,0.062,-0.0105,0.187,-0.2215
-0.0295,0.1095,0.1395,-0.04,-0.084,0.1245,0.0585,-0.0095,0.0795,0.0905,0.064,0.064,-0.01,0.177,-0.217
-0.029,0.1065,0.136,-0.0385,-0.0825,0.1215,0.0575,-0.0135,0.0755,0.089,0.0635,0.065,-0.009,0.176,-0.2125
-0.031,0.105,0.136,-0.0365,-0.083,0.1205,0.0545,-0.019,0.07,0.0875,0.0615,0.064,-0.0085,0.176,-0.209
-0.033,0.1065,0.1395,-0.0365,-0.086,0.123,0.0505,-0.024,0.065,0.083,0.057,0.0595,-0.01,0.186,-0.2065
-0.0335,0.1075,0.141,-0.037,-0.087,0.124,0.0475,-0.026,0.0595,0.078,0.0555,0.058,-0.011,0.186,-0.2035
-0.029,0.109,0.1385,-0.0395,-0.0835,0.124,0.045,-0.0285,0.0565,0.0785,0.0575,0.06,-0.0095,0.1845,-0.201
-0.021,0.115,0.1355,-0.047,-0.078,0.1255,0.0365,-0.035,0.0515,0.076,0.0565,0.059,-0.0075,0.1925,-0.1975
-0.0245,0.112,0.1365,-0.0435,-0.0805,0.124,0.032,-0.0385,0.047,0.074,0.055,0.0605,-0.006,0.1975,-0.196
-0.0275,0.108,0.1355,-0.04,-0.081,0.1215,0.034,-0.0415,0.0435,0.0725,0.056,0.0605,-0.0075,0.196,-0.194
-0.02,0.111,0.131,-0.045,-0.075,0.121,0.03,-0.046,0.04,0.0715,0.0565,0.0605,-0.006,0.1875,-0.1905
-0.0155,0.1125,0.1275,-0.0485,-0.071,0.12,0.0285,-0.049,0.037,0.071,0.0555,0.0625,-0.0025,0.182,-0.1875
-0.016,0.1055,0.1215,-0.045,-0.0685,0.1135,0.0305,-0.0495,0.0375,0.0725,0.059,0.064,-0.002,0.178,-0.1845
-0.016,0.1075,0.1235,-0.0455,-0.0695,0.1155,0.0305,-0.0535,0.038,0.076,0.062,0.0695,0.002,0.1815,-0.184
-0.0085,0.109,0.1175,-0.05,-0.063,0.1135,0.026,-0.055,0.0375,0.0775,0.0635,0.073,0.006,0.181,-0.181
-0.0115,0.103,0.1145,-0.0455,-0.0625,0.109,0.026,-0.0585,0.0355,0.0755,0.0645,0.074,0.0065,0.175,-0.178
-0.017,0.099,0.116,-0.041,-0.066,0.1075,0.0255,-0.0625,0.032,0.074,0.0635,0.0755,0.009,0.176,-0.175
-0.015,0.093,0.108,-0.0385,-0.0615,0.1005,0.0185,-0.063,0.0315,0.073,0.0625,0.074,0.0095,0.17,-0.172
-0.009,0.092,0.101,-0.0415,-0.055,0.0965,0.02,-0.0665,0.0285,0.0725,0.063,0.0755,0.0125,0.1665,-0.17
-0.007,0.096,0.103,-0.0445,-0.0545,0.0995,0.019,-0.0695,0.0275,0.0735,0.062,0.078,0.014,0.17,-0.1675
-0.0095,0.0945,0.104,-0.0425,-0.0565,0.0995,0.0185,-0.0675,0.029,0.0745,0.064,0.08,0.0145,0.168,-0.1655
-0.006,0.087,0.093,-0.04,-0.0495,0.09,0.0175,-0.0685,0.028,0.076,0.068,0.0845,0.0175,0.1615,-0.162
-0.0055,0.085,0.0905,-0.0395,-0.048,0.088,0.013,-0.07,0.0275,0.077,0.0685,0.0855,0.02,0.162,-0.1605
-0.003,0.088,0.0905,-0.042,-0.0465,0.089,0.0095,-0.0735,0.0245,0.077,0.0705,0.088,0.0245,0.16,-0.1585
-0.0015,0.087,0.088,-0.0425,-0.0445,0.0875,0.0045,-0.0785,0.0215,0.0745,0.068,0.089,0.0255,0.1595,-0.157
-0.002,0.0885,0.0905,-0.043,-0.046,0.0895,0.0045,-0.0765,0.02,0.0725,0.066,0.0875,0.023,0.1695,-0.1565
-0.001,0.091,0.0925,-0.045,-0.0465,0.0915,0.0035,-0.0815,0.0165,0.0705,0.0655,0.0855,0.023,0.1725,-0.156
-0.0055,0.089,0.0945,-0.0415,-0.0495,0.0915,0.0015,-0.085,0.0125,0.068,0.0625,0.0855,0.0255,0.166,-0.1535
-0.0055,0.091,0.097,-0.0425,-0.051,0.094,-0.0025,-0.0845,0.0115,0.0655,0.0605,0.086,0.0255,0.1645,-0.1515
-0.009,0.0885,0.0975,-0.0395,-0.053,0.093,-0.0005,-0.088,0.009,0.0645,0.059,0.085,0.0245,0.1695,-0.149
-0.01,0.086,0.096,-0.0375,-0.0525,0.0905,-0.001,-0.0865,0.009,0.067,0.0595,0.0845,0.0235,0.1635,-0.148
-0.007,0.0915,0.0985,-0.0415,-0.0525,0.095,-0.002,-0.0875,0.008,0.0645,0.059,0.0815,0.022,0.165,-0.1475
-0.0075,0.094,0.1015,-0.043,-0.0545,0.098,-0.0025,-0.089,0.0045,0.064,0.0565,0.0785,0.02,0.1725,-0.147
-0.006,0.099,0.105,-0.0465,-0.0555,0.102,-0.006,-0.0865,0.0055,0.066,0.057,0.079,0.0175,0.1655,-0.1495
-0.0115,0.0985,0.11,-0.043,-0.0605,0.104,-0.005,-0.087,0.0075,0.0655,0.0575,0.0775,0.0165,0.1635,-0.1485
-0.0085,0.0965,0.105,-0.0435,-0.0565,0.1005,-0.0095,-0.086,0.0085,0.0665,0.056,0.075,0.016,0.1665,-0.1505
-0.0025,0.1,0.1025,-0.0485,-0.052,0.101,-0.0035,-0.085,0.0085,0.0675,0.057,0.0765,0.0175,0.1705,-0.153
0.0,0.1,0.1005,-0.0495,-0.05,0.1,0.001,-0.0845,0.0095,0.0665,0.0575,0.0765,0.016,0.1715,-0.1515
0.0015,0.098,0.097,-0.0495,-0.0475,0.0975,-0.002,-0.084,0.007,0.064,0.0555,0.072,0.0135,0.163,-0.1515
-0.004,0.097,0.101,-0.046,-0.0525,0.099,0.0015,-0.0815,0.0105,0.0675,0.0575,0.0725,0.015,0.1615,-0.152
-0.0005,0.091,0.0915,-0.045,-0.046,0.0915,0.0045,-0.078,0.014,0.07,0.0625,0.075,0.016,0.1585,-0.1505
-0.001,0.079,0.0795,-0.0385,-0.04,0.0795,0.0065,-0.078,0.0145,0.071,0.0635,0.076,0.015,0.1485,-0.1495
-0.0045,0.073,0.0775,-0.034,-0.041,0.0755,0.0055,-0.076,0.017,0.073,0.064,0.08,0.0185,0.143,-0.149
-0.0035,0.074,0.0775,-0.035,-0.04,0.076,0.0065,-0.0755,0.0145,0.072,0.065,0.08,0.02,0.1435,-0.151
-0.0025,0.0705,0.073,-0.034,-0.0375,0.072,0.0035,-0.0805,0.0105,0.07,0.0615,0.079,0.0215,0.142,-0.1495
-0.0015,0.074,0.0755,-0.036,-0.0385,0.075,0.0045,-0.081,0.0125,0.072,0.065,0.0825,0.026,0.1425,-0.147
-0.0075,0.0765,0.0835,-0.034,-0.0455,0.08,0.0065,-0.077,0.017,0.0745,0.0685,0.084,0.0265,0.1465,-0.149
-0.016,0.071,0.0865,-0.0275,-0.051,0.079,0.004,-0.077,0.0145,0.0725,0.0645,0.081,0.026,0.1495,-0.1495
-0.0095,0.075,0.0845,-0.0325,-0.0465,0.08,0.0025,-0.0815,0.0125,0.0715,0.0645,0.0825,0.0275,0.16,-0.148
0.003,0.081,0.078,-0.042,-0.037,0.0795,0.0055,-0.0785,0.016,0.0755,0.068,0.086,0.029,0.155,-0.148
-0.001,0.081,0.0815,-0.04,-0.041,0.0815,0.009,-0.074,0.018,0.0765,0.068,0.0845,0.0275,0.146,-0.149
0.003,0.0855,0.0825,-0.044,-0.0395,0.084,0.007,-0.0755,0.0185,0.077,0.0685,0.0825,0.026,0.146,-0.1495
0.007,0.088,0.0805,-0.047,-0.0365,0.0845,0.0065,-0.077,0.0195,0.079,0.07,0.0845,0.0275,0.15,-0.1505
0.0055,0.088,0.0825,-0.0465,-0.038,0.085,0.009,-0.0735,0.0215,0.08,0.071,0.0855,0.029,0.1525,-0.1505
0.0085,0.0895,0.081,-0.049,-0.036,0.0855,0.005,-0.0735,0.0235,0.082,0.0725,0.089,0.03,0.146,-0.151
0.006,0.086,0.0795,-0.046,-0.0365,0.0825,0.006,-0.076,0.0235,0.082,0.074,0.0905,0.0295,0.151,-0.1505
0.007,0.0845,0.0775,-0.0455,-0.035,0.081,0.0075,-0.076,0.022,0.079,0.0725,0.087,0.029,0.1525,-0.148
0.011,0.086,0.075,-0.048,-0.0315,0.0805,0.006,-0.0745,0.0235,0.079,0.0735,0.0895,0.0315,0.149,-0.147
0.015,0.0915,0.0765,-0.053,-0.0305,0.084,0.0085,-0.07,0.0265,0.0825,0.076,0.092,0.031,0.1505,-0.149
0.0095,0.092,0.0825,-0.0505,-0.0365,0.087,0.0045,-0.071,0.027,0.083,0.0765,0.091,0.0305,0.147,-0.1505
-0.001,0.084,0.085,-0.041,-0.0425,0.0845,0.0095,-0.0725,0.0275,0.0835,0.0755,0.088,0.026,0.1475,-0.1535
-0.005,0.077,0.082,-0.036,-0.043,0.0795,0.0105,-0.0715,0.0275,0.083,0.074,0.085,0.0225,0.145,-0.1545
-0.005,0.0715,0.0765,-0.033,-0.0405,0.074,0.009,-0.0705,0.028,0.084,0.075,0.0855,0.0245,0.1405,-0.154
-0.0085,0.071,0.0795,-0.031,-0.044,0.0755,0.0165,-0.068,0.029,0.084,0.075,0.084,0.0215,0.151,-0.154
-0.0055,0.0725,0.078,-0.0335,-0.0415,0.0755,0.0145,-0.068,0.028,0.0815,0.074,0.0835,0.0215,0.157,-0.152
0.0035,0.075,0.0715,-0.039,-0.0335,0.0735,0.0135,-0.0685,0.0275,0.0825,0.0755,0.085,0.0245,0.1525,-0.152
-0.001,0.076,0.077,-0.037,-0.039,0.0765,0.015,-0.0695,0.026,0.0825,0.0745,0.086,0.024,0.1475,-0.151
-0.0055,0.0765,0.082,-0.035,-0.044,0.0795,0.0135,-0.07,0.026,0.0815,0.0745,0.0855,0.025,0.1445,-0.1535
-0.014,0.076,0.09,-0.031,-0.0515,0.083,0.015,-0.0685,0.027,0.083,0.0765,0.0845,0.0255,0.1495,-0.154
-0.014,0.0755,0.089,-0.0305,-0.051,0.082,0.0185,-0.0675,0.029,0.083,0.078,0.0855,0.026,0.1515,-0.154
-0.0045,0.079,0.0835,-0.037,-0.0435,0.081,0.017,-0.069,0.028,0.082,0.079,0.086,0.0265,0.154,-0.1545
-0.0055,0.081,0.0865,-0.0375,-0.046,0.084,0.0125,-0.0675,0.026,0.081,0.0765,0.0845,0.025,0.156,-0.154
-0.0055,0.081,0.0865,-0.0375,-0.046,0.084,0.0115,-0.0655,0.027,0.081,0.0765,0.085,0.026,0.1515,-0.155
-0.0055,0.084,0.0895,-0.039,-0.0475,0.0865,0.01,-0.066,0.0265,0.0795,0.0765,0.0855,0.0275,0.149,-0.155
-0.001,0.0865,0.0875,-0.0425,-0.044,0.087,0.0085,-0.068,0.028,0.081,0.0775,0.087,0.028,0.1485,-0.156
0.0025,0.085,0.0825,-0.0435,-0.0395,0.0835,0.0095,-0.068,0.0295,0.0825,0.0795,0.089,0.029,0.1565,-0.1535
-0.0015,0.0785,0.0795,-0.0385,-0.0405,0.079,0.015,-0.0635,0.0295,0.0805,0.0795,0.089,0.0275,0.154,-0.153
-0.004,0.071,0.0755,-0.033,-0.0395,0.0735,0.017,-0.0645,0.03,0.082,0.081,0.0875,0.0255,0.1465,-0.155
-0.013,0.0685,0.081,-0.0275,-0.0465,0.075,0.0125,-0.066,0.0275,0.079,0.077,0.0845,0.0235,0.1475,-0.1545
-0.0065,0.0745,0.0815,-0.034,-0.044,0.078,0.0095,-0.0685,0.0245,0.075,0.075,0.085,0.0245,0.1495,-0.154
-0.0005,0.076,0.077,-0.0375,-0.0385,0.0765,0.009,-0.07,0.024,0.0765,0.0755,0.083,0.024,0.1485,-0.153
-0.0115,0.067,0.0785,-0.0275,-0.0445,0.073,0.0155,-0.0615,0.0275,0.0805,0.077,0.083,0.024,0.1475,-0.152
-0.0125,0.0615,0.074,-0.0245,-0.043,0.068,0.017,-0.056,0.0315,0.0835,0.082,0.0855,0.0255,0.139,-0.154
-0.0135,0.0625,0.0765,-0.0245,-0.045,0.0695,0.016,-0.06,0.0285,0.08,0.0795,0.0815,0.0225,0.139,-0.153
-0.0175,0.067,0.0845,-0.025,-0.0505,0.076,0.0155,-0.0625,0.026,0.0775,0.0765,0.079,0.02,0.152,-0.1535
-0.015,0.0695,0.085,-0.027,-0.0495,0.077,0.015,-0.061,0.0285,0.0785,0.0765,0.077,0.02,0.153,-0.157
-0.015,0.0695,0.0845,-0.027,-0.0495,0.077,0.014,-0.0605,0.028,0.0775,0.0755,0.076,0.0205,0.1455,-0.155
-0.0105,0.0735,0.084,-0.031,-0.047,0.079,0.0145,-0.058,0.0305,0.081,0.0785,0.0795,0.0225,0.143,-0.1565
-0.0085,0.075,0.0835,-0.033,-0.0455,0.079,0.017,-0.0565,0.0315,0.082,0.0795,0.0805,0.0255,0.1445,-0.156
-0.0095,0.076,0.0855,-0.033,-0.0475,0.0805,0.0195,-0.0545,0.0315,0.083,0.0795,0.08,0.0265,0.15,-0.1555
-0.0055,0.076,0.0815,-0.035,-0.043,0.0785,0.02,-0.0515,0.034,0.086,0.082,0.0815,0.0255,0.156,-0.1585
-0.0125,0.0675,0.08,-0.0275,-0.046,0.0735,0.0205,-0.0545,0.0345,0.0825,0.079,0.081,0.0245,0.15,-0.158
-0.0155,0.0665,0.082,-0.025,-0.0485,0.0745,0.0225,-0.057,0.0325,0.0825,0.0775,0.08,0.021,0.1435,-0.1595
-0.0135,0.067,0.0805,-0.0265,-0.047,0.0735,0.022,-0.056,0.033,0.084,0.0795,0.0825,0.0205,0.1405,-0.158
-0.0155,0.0625,0.0775,-0.0235,-0.046,0.07,0.026,-0.0535,0.0335,0.081,0.077,0.079,0.0165,0.135,-0.158
-0.0125,0.061,0.074,-0.024,-0.043,0.0675,0.022,-0.0565,0.0295,0.079,0.0745,0.077,0.0155,0.1355,-0.1575
-0.0205,0.0545,0.0745,-0.0165,-0.0475,0.0645,0.0265,-0.0585,0.028,0.078,0.0725,0.078,0.017,0.14,-0.156
-0.017,0.0505,0.067,-0.0165,-0.0415,0.0585,0.0255,-0.056,0.0285,0.0775,0.072,0.0775,0.017,0.126,-0.154
-0.015,0.0545,0.069,-0.0195,-0.042,0.0615,0.021,-0.0565,0.0305,0.079,0.0735,0.081,0.0195,0.128,-0.1535
-0.0265,0.048,0.0745,-0.0105,-0.0505,0.0615,0.031,-0.0575,0.029,0.077,0.07,0.0775,0.016,0.1375,-0.152
-0.0175,0.048,0.0655,-0.015,-0.041,0.0565,0.029,-0.056,0.0295,0.0775,0.07,0.078,0.0155,0.125,-0.1495
-0.0125,0.049,0.0615,-0.018,-0.0365,0.0555,0.033,-0.0505,0.036,0.0815,0.075,0.081,0.0165,0.13,-0.1535
-0.012,0.0455,0.057,-0.0165,-0.034,0.051,0.036,-0.052,0.035,0.082,0.0755,0.0795,0.0145,0.126,-0.155
-0.0165,0.05,0.0665,-0.0165,-0.041,0.058,0.037,-0.057,0.0315,0.0795,0.0745,0.0785,0.0115,0.124,-0.154
-0.0205,0.0515,0.072,-0.0155,-0.046,0.0615,0.035,-0.0585,0.0295,0.0785,0.0705,0.075,0.0095,0.1315,-0.1515
-0.0125,0.056,0.0685,-0.0215,-0.0405,0.062,0.028,-0.0565,0.0315,0.0795,0.0695,0.0755,0.012,0.131,-0.152
-0.011,0.0605,0.0715,-0.0245,-0.041,0.066,0.0315,-0.058,0.0285,0.076,0.0675,0.0715,0.008,0.1375,-0.152
-0.0095,0.0665,0.0755,-0.0285,-0.0425,0.071,0.031,-0.059,0.026,0.074,0.0665,0.0685,0.005,0.141,-0.153
-0.015,0.0695,0.0845,-0.0275,-0.0495,0.077,0.0315,-0.057,0.0325,0.081,0.073,0.0725,0.008,0.1475,-0.1555
-0.0155,0.0725,0.088,-0.0285,-0.0515,0.08,0.0295,-0.0595,0.031,0.08,0.0695,0.0715,0.0085,0.1445,-0.156
-0.0215,0.0675,0.0895,-0.023,-0.0555,0.0785,0.029,-0.06,0.028,0.0765,0.066,0.0695,0.01,0.143,-0.156
-0.021,0.0655,0.087,-0.022,-0.0535,0.076,0.029,-0.064,0.026,0.075,0.0665,0.071,0.0145,0.1455,-0.1545
-0.0135,0.0705,0.084,-0.0285,-0.0485,0.077,0.03,-0.064,0.026,0.0735,0.0645,0.0705,0.012,0.1465,-0.1565
-0.01,0.07,0.0805,-0.03,-0.045,0.0755,0.034,-0.058,0.0315,0.076,0.067,0.0715,0.011,0.146,-0.1585
-0.0145,0.064,0.078,-0.0245,-0.046,0.071,0.0335,-0.0575,0.0295,0.0765,0.0665,0.0705,0.0115,0.137,-0.156
-0.027,0.0565,0.0835,-0.0145,-0.055,0.07,0.037,-0.058,0.029,0.0755,0.065,0.0705,0.0105,0.1415,-0.156
-0.0245,0.055,0.08,-0.015,-0.052,0.0675,0.034,-0.062,0.0265,0.074,0.0645,0.071,0.011,0.139,-0.155
-0.031,0.048,0.079,-0.008,-0.055,0.0635,0.036,-0.061,0.0265,0.0755,0.0655,0.07,0.0105,0.142,-0.1565
-0.035,0.052,0.087,-0.0085,-0.0605,0.0695,0.043,-0.054,0.0325,0.08,0.0705,0.074,0.012,0.155,-0.1575
-0.027,0.0575,0.0845,-0.015,-0.0555,0.071,0.0415,-0.056,0.0335,0.081,0.0725,0.076,0.0135,0.148,-0.1575
-0.0245,0.049,0.0735,-0.012,-0.0485,0.061,0.0415,-0.058,0.0325,0.081,0.072,0.0745,0.0105,0.1295,-0.159
-0.025,0.0385,0.0635,-0.0065,-0.044,0.051,0.041,-0.059,0.0305,0.078,0.0695,0.0745,0.0085,0.109,-0.158
-0.0265,0.034,0.0605,-0.003,-0.0435,0.0475,0.041,-0.0565,0.0315,0.08,0.072,0.076,0.008,0.104,-0.1565
-0.026,0.0355,0.062,-0.0045,-0.044,0.049,0.041,-0.0565,0.033,0.081,0.072,0.078,0.009,0.118,-0.156
-0.026,0.0375,0.064,-0.0055,-0.045,0.051,0.036,-0.063,0.028,0.0775,0.0695,0.076,0.009,0.1245,-0.154
-0.0245,0.043,0.0675,-0.009,-0.046,0.0555,0.0335,-0.062,0.027,0.0785,0.071,0.0735,0.007,0.1215,-0.155
-0.0225,0.0475,0.07,-0.012,-0.0465,0.059,0.033,-0.061,0.029,0.08,0.0715,0.073,0.009,0.123,-0.157
-0.0225,0.0515,0.074,-0.014,-0.048,0.0625,0.0295,-0.063,0.0245,0.077,0.0695,0.0715,0.008,0.129,-0.158
-0.0215,0.0515,0.073,-0.0145,-0.047,0.062,0.032,-0.063,0.022,0.0745,0.067,0.071,0.0085,0.1295,-0.1555
-0.021,0.051,0.072,-0.015,-0.0465,0.0615,0.031,-0.0635,0.0235,0.073,0.067,0.0705,0.009,0.123,-0.154
-0.0235,0.055,0.079,-0.0155,-0.051,0.067,0.0305,-0.0685,0.022,0.071,0.065,0.0685,0.006,0.122,-0.1545
-0.0185,0.057,0.075,-0.019,-0.0465,0.066,0.0315,-0.07,0.018,0.069,0.061,0.0665,0.0065,0.122,-0.154
-0.01,0.061,0.071,-0.0255,-0.04,0.066,0.027,-0.066,0.0185,0.071,0.0645,0.0705,0.009,0.128,-0.1535
-0.014,0.0625,0.0765,-0.024,-0.045,0.0695,0.028,-0.0635,0.0205,0.0725,0.0665,0.0735,0.0105,0.141,-0.153
-0.0195,0.057,0.0765,-0.0185,-0.048,0.067,0.031,-0.067,0.0205,0.0715,0.0655,0.0715,0.0105,0.1365,-0.1535
-0.0255,0.055,0.081,-0.0145,-0.053,0.068,0.034,-0.064,0.0205,0.073,0.0675,0.074,0.01,0.135,-0.153
-0.024,0.056,0.08,-0.0155,-0.0515,0.068,0.0315,-0.063,0.019,0.0705,0.064,0.072,0.0085,0.135,-0.153
-0.0185,0.054,0.0725,-0.0175,-0.0455,0.063,0.032,-0.065,0.017,0.066,0.06,0.069,0.007,0.132,-0.1515
-0.02,0.056,0.0765,-0.018,-0.048,0.066,0.03,-0.0625,0.0185,0.0685,0.062,0.071,0.007,0.142,-0.15
-0.0235,0.0575,0.081,-0.0165,-0.052,0.069,0.0295,-0.067,0.019,0.0695,0.0615,0.071,0.006,0.1435,-0.1505
-0.027,0.0535,0.081,-0.013,-0.0535,0.067,0.0355,-0.066,0.0195,0.0705,0.064,0.075,0.006,0.1395,-0.15
-0.026,0.05,0.076,-0.012,-0.0505,0.063,0.0345,-0.061,0.0195,0.07,0.0635,0.0765,0.0055,0.136,-0.1505
-0.027,0.046,0.073,-0.009,-0.0495,0.059,0.032,-0.066,0.0145,0.064,0.0565,0.0685,0.002,0.129,-0.148
-0.027,0.046,0.073,-0.009,-0.05,0.06,0.0355,-0.0705,0.0125,0.0635,0.057,0.065,-0.002,0.136,-0.1475
-0.0235,0.0475,0.071,-0.0115,-0.047,0.0595,0.0355,-0.07,0.011,0.0635,0.057,0.0665,-0.001,0.138,-0.1495
-0.0215,0.0475,0.069,-0.013,-0.045,0.058,0.028,-0.0725,0.0095,0.063,0.0555,0.0665,0.0,0.134,-0.148
-0.025,0.0455,0.0705,-0.01,-0.0475,0.058,0.03,-0.0705,0.0085,0.0635,0.056,0.065,0.0,0.14,-0.148
-0.035,0.0435,0.0785,-0.004,-0.0565,0.061,0.031,-0.0715,0.006,0.061,0.0535,0.0635,-0.001,0.142,-0.1485
-0.034,0.045,0.079,-0.005,-0.056,0.062,0.0285,-0.076,0.0055,0.0595,0.051,0.06,-0.0045,0.141,-0.149
-0.024,0.052,0.0765,-0.0135,-0.05,0.064,0.0295,-0.074,0.0055,0.0605,0.051,0.0615,-0.0035,0.1355,-0.146
-0.0215,0.057,0.0785,-0.0175,-0.05,0.068,0.0325,-0.0705,0.0055,0.061,0.0515,0.0645,-0.001,0.1365,-0.1455
-0.019,0.0565,0.0755,-0.0185,-0.047,0.066,0.035,-0.066,0.005,0.06,0.0525,0.065,-0.0005,0.1345,-0.1455
-0.013,0.06,0.073,-0.0235,-0.043,0.0665,0.0275,-0.0715,0.0035,0.0575,0.053,0.066,0.0015,0.133,-0.1435
-0.016,0.0605,0.0765,-0.022,-0.046,0.0685,0.028,-0.0715,0.0025,0.0585,0.053,0.067,0.0025,0.143,-0.1435
-0.011,0.062,0.073,-0.0255,-0.0415,0.0675,0.0295,-0.0685,0.0005,0.057,0.053,0.0675,0.002,0.1405,-0.142
-0.0015,0.0655,0.0675,-0.032,-0.034,0.0665,0.0255,-0.073,0.002,0.055,0.053,0.0645,0.0005,0.14,-0.1405
-0.008,0.066,0.074,-0.029,-0.041,0.07,0.0295,-0.0705,0.005,0.0595,0.056,0.066,0.002,0.1485,-0.1425
-0.004,0.062,0.0665,-0.0285,-0.035,0.0645,0.025,-0.074,0.0005,0.056,0.053,0.064,0.005,0.1425,-0.1425
-0.0025,0.064,0.0665,-0.0305,-0.0345,0.065,0.0205,-0.075,-0.0005,0.0555,0.0525,0.063,0.0065,0.1385,-0.1425
-0.013,0.063,0.076,-0.025,-0.0445,0.0695,0.021,-0.072,0.0025,0.057,0.054,0.064,0.0085,0.1385,-0.143
-0.018,0.055,0.073,-0.018,-0.0455,0.064,0.023,-0.074,0.0005,0.0555,0.0525,0.0635,0.006,0.1345,-0.14
-0.0255,0.045,0.0705,-0.0095,-0.048,0.058,0.021,-0.0715,-0.001,0.055,0.05,0.0615,0.004,0.132,-0.139
-0.033,0.0395,0.0725,-0.003,-0.0525,0.056,0.0195,-0.0775,-0.005,0.053,0.046,0.0585,0.003,0.132,-0.137
-0.0355,0.0415,0.077,-0.0025,-0.056,0.059,0.021,-0.0825,-0.006,0.053,0.044,0.0575,0.0005,0.137,-0.1385
-0.038,0.043,0.0805,-0.0025,-0.059,0.062,0.02,-0.0775,-0.003,0.053,0.0445,0.056,0.001,0.1365,-0.143
-0.033,0.053,0.086,-0.01,-0.059,0.0695,0.0215,-0.076,-0.0045,0.0525,0.0455,0.057,0.0,0.134,-0.1415
-0.0285,0.0585,0.087,-0.015,-0.0575,0.073,0.019,-0.0805,-0.0055,0.051,0.045,0.0575,-0.001,0.1415,-0.14
-0.0235,0.0645,0.088,-0.02,-0.056,0.0765,0.0215,-0.075,-0.002,0.055,0.047,0.0605,-0.0015,0.1445,-0.143
-0.019,0.063,0.0825,-0.0215,-0.0505,0.073,0.019,-0.0735,-0.001,0.0555,0.048,0.059,-0.0025,0.1405,-0.1425
-0.0245,0.0575,0.0825,-0.0165,-0.053,0.07,0.015,-0.082,-0.0065,0.049,0.0415,0.052,-0.0065,0.141,-0.141
-0.0245,0.065,0.0895,-0.02,-0.057,0.077,0.018,-0.081,-0.008,0.048,0.042,0.053,-0.007,0.1395,-0.1405
-0.0195,0.067,0.087,-0.0235,-0.0525,0.077,0.015,-0.084,-0.0085,0.049,0.046,0.0585,-0.001,0.141,-0.1415
-0.0175,0.068,0.086,-0.025,-0.0515,0.077,0.0155,-0.0825,-0.009,0.0485,0.045,0.0595,0.0,0.1455,-0.1425
-0.017,0.0705,0.088,-0.027,-0.052,0.079,0.016,-0.081,-0.0075,0.05,0.045,0.0595,-0.0015,0.145,-0.141
-0.017,0.0705,0.0875,-0.0265,-0.052,0.079,0.0145,-0.0835,-0.0095,0.05,0.0465,0.062,0.0015,0.1415,-0.14
-0.0165,0.067,0.0835,-0.0255,-0.0495,0.0755,0.0165,-0.079,-0.0065,0.053,0.051,0.064,0.0045,0.1445,-0.141
-0.0135,0.0645,0.078,-0.0255,-0.0455,0.0715,0.017,-0.0825,-0.003,0.058,0.054,0.066,0.006,0.148,-0.142
-0.014,0.0635,0.0775,-0.0245,-0.0455,0.071,0.018,-0.085,-0.005,0.057,0.054,0.067,0.008,0.1445,-0.1405
-0.015,0.066,0.0805,-0.0255,-0.0475,0.0735,0.024,-0.0805,-0.004,0.0575,0.0545,0.0685,0.0065,0.143,-0.141
-0.021,0.0605,0.082,-0.0195,-0.051,0.0715,0.0285,-0.08,-0.0035,0.057,0.0535,0.068,0.004,0.1405,-0.14
-0.0175,0.0535,0.0705,-0.018,-0.0435,0.062,0.0315,-0.076,-0.002,0.057,0.051,0.0665,0.0025,0.1365,-0.1375
-0.0145,0.0485,0.0625,-0.017,-0.0385,0.0555,0.0345,-0.0735,-0.002,0.0575,0.0495,0.063,-0.001,0.141,-0.139
-0.0195,0.0455,0.065,-0.0125,-0.042,0.055,0.03,-0.078,-0.0045,0.0545,0.048,0.059,-0.005,0.1375,-0.1405
-0.0125,0.051,0.0635,-0.019,-0.038,0.057,0.031,-0.074,0.002,0.0605,0.0525,0.065,-0.002,0.1365,-0.1425
-0.0085,0.062,0.0705,-0.0265,-0.039,0.066,0.035,-0.071,0.0065,0.0665,0.058,0.07,0.0005,0.1535,-0.1455
0.001,0.0765,0.0755,-0.0385,-0.037,0.076,0.0305,-0.072,0.005,0.067,0.06,0.072,-0.0005,0.1595,-0.1475
-0.01,0.074,0.0835,-0.032,-0.0465,0.079,0.03,-0.074,0.004,0.0655,0.058,0.0695,-0.0055,0.162,-0.1485
-0.01,0.0735,0.0835,-0.0315,-0.0465,0.0785,0.031,-0.0785,0.0005,0.062,0.0535,0.068,-0.008,0.1585,-0.1505
0.0015,0.0825,0.081,-0.042,-0.0395,0.082,0.0315,-0.0705,0.0085,0.0715,0.064,0.0795,0.001,0.16,-0.154
-0.013,0.0805,0.0935,-0.0335,-0.053,0.087,0.0375,-0.068,0.012,0.075,0.0665,0.08,-0.001,0.171,-0.158
-0.0125,0.0835,0.096,-0.035,-0.054,0.0895,0.0345,-0.0745,0.0075,0.072,0.063,0.0775,0.0,0.1725,-0.16
-0.004,0.099,0.1035,-0.047,-0.0535,0.1015,0.0315,-0.074,0.01,0.0735,0.066,0.081,0.0005,0.1755,-0.1615
0.004,0.118,0.114,-0.061,-0.055,0.116,0.037,-0.068,0.0145,0.076,0.069,0.0835,-0.003,0.181,-0.166
0.0065,0.1225,0.116,-0.064,-0.0545,0.119,0.0435,-0.059,0.0195,0.0805,0.0735,0.0895,0.0025,0.1885,-0.169
0.0025,0.1235,0.121,-0.063,-0.059,0.1225,0.051,-0.053,0.024,0.0815,0.077,0.094,0.0015,0.204,-0.174
0.005,0.1295,0.1245,-0.067,-0.0595,0.127,0.0565,-0.051,0.026,0.0845,0.0805,0.096,0.0025,0.208,-0.1795
0.0035,0.1275,0.124,-0.0655,-0.06,0.126,0.06,-0.049,0.0275,0.085,0.082,0.095,0.003,0.2045,-0.1825
0.003,0.1295,0.1265,-0.066,-0.0615,0.128,0.066,-0.045,0.033,0.0875,0.0835,0.0985,0.0025,0.2095,-0.1865
0.004,0.133,0.129,-0.0685,-0.0625,0.1315,0.069,-0.0425,0.036,0.0925,0.087,0.0985,0.006,0.203,-0.1885
0.0095,0.1385,0.129,-0.0735,-0.0595,0.134,0.072,-0.041,0.0355,0.0905,0.086,0.0955,0.0015,0.2,-0.189
0.0145,0.136,0.1215,-0.075,-0.0535,0.129,0.076,-0.0415,0.0335,0.0875,0.083,0.0955,0.0,0.195,-0.1865
0.0085,0.1265,0.118,-0.067,-0.0545,0.1225,0.079,-0.038,0.0355,0.09,0.086,0.097,0.0025,0.192,-0.1875
-0.0105,0.1225,0.133,-0.056,-0.0715,0.128,0.0915,-0.0385,0.0355,0.0895,0.0845,0.095,-0.0005,0.2055,-0.194
-0.0015,0.126,0.128,-0.062,-0.0645,0.127,0.1,-0.036,0.038,0.0915,0.0855,0.096,0.004,0.206,-0.1955
0.0115,0.1295,0.118,-0.0705,-0.053,0.124,0.094,-0.033,0.043,0.0955,0.089,0.101,0.011,0.1955,-0.1965
0.003,0.1275,0.1245,-0.065,-0.0605,0.126,0.0895,-0.0345,0.042,0.095,0.089,0.1005,0.013,0.1995,-0.199
0.0115,0.136,0.124,-0.0735,-0.056,0.13,0.0815,-0.0315,0.046,0.1005,0.0935,0.1035,0.017,0.208,-0.202
0.015,0.1435,0.128,-0.079,-0.0565,0.1355,0.069,-0.039,0.044,0.101,0.095,0.1055,0.019,0.209,-0.2045
0.018,0.1475,0.1295,-0.0825,-0.0555,0.1385,0.063,-0.039,0.046,0.102,0.098,0.1065,0.0185,0.213,-0.205
0.018,0.1545,0.1365,-0.086,-0.059,0.1455,0.051,-0.037,0.049,0.105,0.098,0.1085,0.018,0.2185,-0.205
0.018,0.1635,0.1455,-0.0905,-0.0635,0.1545,0.0375,-0.0405,0.047,0.1045,0.0985,0.1105,0.0205,0.2325,-0.204
0.0315,0.1755,0.1435,-0.1035,-0.0555,0.1595,0.0265,-0.043,0.0475,0.105,0.1,0.111,0.0255,0.231,-0.201
0.0265,0.1705,0.144,-0.098,-0.0585,0.157,0.017,-0.054,0.039,0.0975,0.094,0.1085,0.0265,0.213,-0.196
0.0305,0.172,0.1415,-0.101,-0.055,0.1565,0.0085,-0.059,0.038,0.099,0.0995,0.112,0.0275,0.2145,-0.193
0.0395,0.1795,0.1395,-0.109,-0.0495,0.1595,-0.0195,-0.074,0.0335,0.0995,0.101,0.1135,0.0275,0.2215,-0.19
0.0365,0.179,0.142,-0.1075,-0.0525,0.1605,-0.0455,-0.085,0.0255,0.094,0.0965,0.111,0.0265,0.2215,-0.1815
0.045,0.177,0.132,-0.111,-0.043,0.1545,-0.052,-0.0865,0.022,0.0925,0.095,0.1075,0.029,0.2155,-0.175
0.039,0.1745,0.1355,-0.1065,-0.048,0.155,-0.0535,-0.0895,0.022,0.094,0.096,0.1095,0.034,0.212,-0.173
0.0265,0.1655,0.139,-0.0955,-0.056,0.152,-0.049,-0.088,0.0225,0.0935,0.0935,0.108,0.0375,0.2065,-0.1695
0.0265,0.153,0.1265,-0.0895,-0.0495,0.1395,-0.049,-0.0865,0.019,0.0905,0.09,0.1045,0.041,0.1975,-0.164
0.042,0.1515,0.1095,-0.0965,-0.0335,0.1305,-0.0565,-0.0845,0.0225,0.0945,0.096,0.1115,0.0515,0.1915,-0.159
0.0535,0.1465,0.093,-0.1,-0.0195,0.1195,-0.0645,-0.0885,0.02,0.094,0.0945,0.1135,0.059,0.181,-0.1505
0.0515,0.144,0.0925,-0.097,-0.0205,0.118,-0.072,-0.09,0.016,0.0925,0.0925,0.1115,0.06,0.177,-0.1465
0.052,0.143,0.0915,-0.097,-0.0195,0.1175,-0.08,-0.09,0.0175,0.093,0.0935,0.112,0.0625,0.178,-0.1425
0.055,0.146,0.0905,-0.1,-0.0175,0.118,-0.08,-0.0905,0.0165,0.0925,0.0935,0.1135,0.0615,0.1825,-0.138
0.0495,0.146,0.096,-0.0975,-0.023,0.121,-0.0795,-0.098,0.0085,0.087,0.09,0.108,0.0535,0.1865,-0.1355
0.032,0.1425,0.1105,-0.087,-0.039,0.1265,-0.083,-0.1075,-0.0025,0.0765,0.082,0.0995,0.044,0.19,-0.132
0.0225,0.1405,0.118,-0.081,-0.0475,0.129,-0.0845,-0.1125,-0.0085,0.0685,0.0755,0.0955,0.0385,0.203,-0.128
0.026,0.142,0.1155,-0.0835,-0.0445,0.1285,-0.087,-0.1205,-0.013,0.0655,0.074,0.0955,0.0385,0.212,-0.1205
0.045,0.1585,0.113,-0.1015,-0.0335,0.136,-0.0945,-0.126,-0.0185,0.064,0.0745,0.096,0.0395,0.2195,-0.115
0.059,0.1675,0.1085,-0.113,-0.0245,0.138,-0.106,-0.1325,-0.0195,0.064,0.0735,0.097,0.043,0.222,-0.1065
0.0605,0.168,0.1075,-0.114,-0.0235,0.138,-0.106,-0.1335,-0.021,0.0625,0.074,0.098,0.045,0.218,-0.1015
0.06,0.1645,0.105,-0.112,-0.0225,0.135,-0.1145,-0.1395,-0.029,0.0585,0.0735,0.0965,0.0445,0.204,-0.095
0.052,0.1555,0.104,-0.1035,-0.0255,0.1295,-0.1225,-0.149,-0.031,0.057,0.0705,0.096,0.045,0.198,-0.087
0.0495,0.151,0.101,-0.1,-0.025,0.1255,-0.115,-0.1435,-0.03,0.057,0.07,0.095,0.0445,0.209,-0.0845
0.051,0.145,0.094,-0.098,-0.021,0.1195,-0.1115,-0.143,-0.0335,0.0545,0.068,0.0955,0.0465,0.2055,-0.079
0.04,0.1305,0.0905,-0.085,-0.025,0.1105,-0.1095,-0.147,-0.038,0.048,0.0615,0.091,0.0415,0.201,-0.0775
0.04,0.126,0.0865,-0.083,-0.023,0.1065,-0.1095,-0.1435,-0.0385,0.0465,0.0595,0.0895,0.0415,0.191,-0.075
0.046,0.1265,0.0805,-0.086,-0.017,0.1035,-0.107,-0.142,-0.0375,0.047,0.058,0.0905,0.046,0.1775,-0.0725
0.0375,0.112,0.074,-0.0745,-0.018,0.093,-0.1,-0.138,-0.033,0.048,0.0605,0.091,0.0465,0.17,-0.0725
0.036,0.104,0.068,-0.07,-0.016,0.086,-0.0955,-0.137,-0.031,0.051,0.064,0.0945,0.049,0.1645,-0.071
0.0395,0.101,0.0615,-0.07,-0.0105,0.081,-0.091,-0.133,-0.031,0.0535,0.065,0.0975,0.052,0.168,-0.07
0.048,0.0995,0.0515,-0.0735,-0.0015,0.0755,-0.091,-0.1265,-0.0255,0.0575,0.0705,0.102,0.0595,0.155,-0.0665
0.0595,0.097,0.0375,-0.078,0.0115,0.067,-0.0925,-0.132,-0.0285,0.055,0.069,0.1,0.0625,0.1595,-0.0645
0.064,0.089,0.025,-0.0765,0.02,0.057,-0.0885,-0.1285,-0.028,0.058,0.0705,0.104,0.0655,0.1585,-0.06
0.076,0.0935,0.0175,-0.0845,0.0295,0.0555,-0.093,-0.122,-0.024,0.062,0.076,0.111,0.0755,0.145,-0.054
0.076,0.0935,0.0175,-0.0845,0.0295,0.055,-0.0995,-0.127,-0.027,0.0605,0.0755,0.1095,0.0805,0.1475,-0.051
0.0805,0.0925,0.012,-0.0865,0.0345,0.0525,-0.1025,-0.131,-0.023,0.0635,0.078,0.109,0.085,0.1375,-0.051
0.0875,0.1005,0.013,-0.094,0.0375,0.057,-0.1065,-0.133,-0.022,0.065,0.08,0.111,0.0855,0.1425,-0.053
0.078,0.099,0.021,-0.0885,0.0285,0.06,-0.1015,-0.131,-0.0215,0.0665,0.084,0.1145,0.0865,0.147,-0.0565
0.077,0.094,0.017,-0.085,0.03,0.0555,-0.1035,-0.1315,-0.0255,0.0605,0.0775,0.1085,0.0825,0.137,-0.0545
0.0735,0.0885,0.015,-0.081,0.0295,0.052,-0.0995,-0.132,-0.0345,0.052,0.067,0.1,0.077,0.132,-0.051
0.0625,0.078,0.0155,-0.07,0.0235,0.047,-0.088,-0.133,-0.039,0.047,0.063,0.0985,0.076,0.1305,-0.054
0.0575,0.068,0.011,-0.0625,0.0235,0.0395,-0.086,-0.1385,-0.0425,0.042,0.058,0.095,0.0715,0.123,-0.0555
0.056,0.0615,0.006,-0.0585,0.025,0.0335,-0.081,-0.1385,-0.0435,0.0415,0.059,0.095,0.069,0.1145,-0.058
0.0605,0.0575,-0.0025,-0.059,0.032,0.0275,-0.079,-0.138,-0.048,0.0365,0.0545,0.0915,0.0635,0.116,-0.0585
0.0655,0.0595,-0.0065,-0.0625,0.0365,0.0265,-0.0745,-0.1395,-0.051,0.034,0.0505,0.091,0.0595,0.1105,-0.0575
0.0625,0.0625,0.0,-0.062,0.0315,0.031,-0.07,-0.1415,-0.049,0.0375,0.0525,0.0925,0.0565,0.1125,-0.0645
0.0635,0.0695,0.006,-0.0665,0.029,0.038,-0.0735,-0.1405,-0.046,0.0395,0.055,0.096,0.053,0.1295,-0.065
0.0525,0.0705,0.0175,-0.0615,0.018,0.044,-0.066,-0.1405,-0.043,0.042,0.0585,0.0965,0.0475,0.1495,-0.065
0.0445,0.07,0.0255,-0.0575,0.01,0.048,-0.0545,-0.141,-0.044,0.0435,0.059,0.0975,0.044,0.1525,-0.07
0.0395,0.071,0.0315,-0.055,0.0045,0.0515,-0.0505,-0.1405,-0.0445,0.0415,0.0565,0.0965,0.0395,0.137,-0.0715
0.041,0.0675,0.0265,-0.054,0.008,0.047,-0.05,-0.1475,-0.05,0.0345,0.048,0.085,0.031,0.1285,-0.07
0.039,0.067,0.0285,-0.053,0.0055,0.048,-0.0475,-0.14,-0.048,0.0355,0.0485,0.086,0.0305,0.1335,-0.0755
0.0245,0.0625,0.0385,-0.0435,-0.0065,0.0505,-0.04,-0.1285,-0.0435,0.038,0.0515,0.088,0.032,0.135,-0.079
0.026,0.0655,0.039,-0.0455,-0.006,0.0525,-0.031,-0.1305,-0.045,0.037,0.05,0.085,0.0295,0.142,-0.082
0.0265,0.0735,0.047,-0.05,-0.01,0.06,-0.0285,-0.128,-0.039,0.0405,0.054,0.0895,0.032,0.1525,-0.0885
0.028,0.068,0.04,-0.048,-0.0055,0.054,-0.028,-0.125,-0.0355,0.0435,0.0575,0.092,0.038,0.1355,-0.091
0.0175,0.0555,0.0385,-0.036,-0.0105,0.047,-0.021,-0.121,-0.0345,0.043,0.056,0.0885,0.033,0.1165,-0.0905
0.022,0.058,0.036,-0.0395,-0.007,0.047,-0.0215,-0.119,-0.035,0.0405,0.0535,0.0885,0.034,0.112,-0.09
0.016,0.0515,0.0355,-0.0335,-0.0095,0.0435,-0.022,-0.12,-0.0405,0.0355,0.049,0.0835,0.031,0.121,-0.089
0.003,0.0435,0.0405,-0.023,-0.0185,0.042,-0.022,-0.1235,-0.0455,0.028,0.0445,0.0765,0.023,0.122,-0.086
0.02,0.057,0.037,-0.038,-0.0085,0.047,-0.0195,-0.1195,-0.0415,0.032,0.0495,0.0825,0.027,0.1085,-0.085
0.013,0.06,0.0465,-0.036,-0.0165,0.053,-0.015,-0.115,-0.037,0.038,0.0535,0.0835,0.0235,0.1115,-0.088
0.015,0.062,0.0475,-0.038,-0.016,0.055,-0.0155,-0.115,-0.0325,0.043,0.058,0.0865,0.027,0.1225,-0.091
0.011,0.0605,0.0495,-0.0355,-0.019,0.055,-0.006,-0.1095,-0.027,0.0495,0.0625,0.0905,0.0305,0.1305,-0.095
0.0065,0.0565,0.05,-0.031,-0.0215,0.0535,-0.0035,-0.108,-0.025,0.05,0.0645,0.09,0.031,0.1285,-0.0975
0.01,0.0575,0.048,-0.0335,-0.0185,0.0525,-0.01,-0.11,-0.0255,0.0495,0.0645,0.092,0.035,0.134,-0.098
0.0025,0.056,0.053,-0.029,-0.025,0.0545,-0.0075,-0.111,-0.026,0.0495,0.0635,0.0925,0.0335,0.1265,-0.1005
0.003,0.044,0.041,-0.0235,-0.0185,0.0425,-0.0005,-0.108,-0.026,0.0465,0.0605,0.0895,0.032,0.114,-0.0995
0.0,0.033,0.033,-0.016,-0.0165,0.033,0.0065,-0.101,-0.0285,0.044,0.058,0.0885,0.031,0.1145,-0.0975
-0.003,0.0325,0.036,-0.0145,-0.019,0.0345,0.0105,-0.1005,-0.0305,0.042,0.0555,0.0875,0.0275,0.1025,-0.098
0.0,0.035,0.0355,-0.0175,-0.0175,0.0355,0.0095,-0.104,-0.0335,0.0375,0.0505,0.0825,0.0225,0.102,-0.097
0.0045,0.044,0.0395,-0.024,-0.017,0.0415,0.0115,-0.1,-0.032,0.0365,0.0495,0.081,0.0195,0.106,-0.099
0.0,0.047,0.047,-0.023,-0.0235,0.047,0.011,-0.1015,-0.031,0.0365,0.0485,0.081,0.018,0.1095,-0.1005
0.01,0.055,0.045,-0.032,-0.017,0.05,0.005,-0.1025,-0.0325,0.037,0.0495,0.079,0.018,0.117,-0.104
0.015,0.061,0.046,-0.0375,-0.0155,0.0535,0.0045,-0.1045,-0.033,0.0365,0.0495,0.077,0.019,0.1235,-0.109
0.012,0.0625,0.05,-0.037,-0.019,0.0565,0.002,-0.105,-0.0335,0.037,0.049,0.078,0.019,0.1195,-0.107
0.0035,0.06,0.057,-0.0315,-0.0265,0.0585,0.0055,-0.0965,-0.031,0.0375,0.0495,0.0745,0.015,0.123,-0.107
-0.0085,0.0575,0.0665,-0.0245,-0.0375,0.062,0.0125,-0.0985,-0.03,0.037,0.047,0.071,0.0105,0.1265,-0.108
0.002,0.064,0.062,-0.033,-0.03,0.063,0.013,-0.0965,-0.028,0.0365,0.0485,0.0715,0.0105,0.1215,-0.107
-0.0015,0.059,0.0605,-0.0285,-0.0305,0.0595,0.011,-0.098,-0.0275,0.0375,0.047,0.0705,0.012,0.1235,-0.105
-0.0035,0.0525,0.0555,-0.0245,-0.029,0.054,0.015,-0.1,-0.0295,0.037,0.0465,0.072,0.0145,0.1175,-0.105
-0.0015,0.048,0.0495,-0.023,-0.025,0.0485,0.0185,-0.0965,-0.0275,0.0385,0.0485,0.0745,0.0155,0.1165,-0.1065
0.0005,0.0445,0.044,-0.0225,-0.0215,0.0445,0.02,-0.0945,-0.0275,0.0415,0.0505,0.0755,0.0165,0.1125,-0.1065
0.0015,0.0385,0.0365,-0.02,-0.017,0.0375,0.024,-0.0905,-0.0275,0.04,0.053,0.0775,0.017,0.1075,-0.105
0.009,0.0365,0.0275,-0.0225,-0.009,0.032,0.021,-0.096,-0.0245,0.0445,0.0555,0.0805,0.021,0.109,-0.1055
0.0145,0.0375,0.023,-0.0255,-0.004,0.03,0.022,-0.0935,-0.0225,0.047,0.0565,0.084,0.024,0.103,-0.1055
0.0,0.026,0.0265,-0.013,-0.013,0.0265,0.021,-0.0895,-0.023,0.045,0.0575,0.0845,0.0205,0.0965,-0.1045
0.0,0.019,0.0185,-0.0095,-0.009,0.0185,0.018,-0.0975,-0.027,0.042,0.0545,0.079,0.018,0.097,-0.1045
-0.004,0.009,0.013,-0.0025,-0.008,0.011,0.022,-0.098,-0.027,0.041,0.055,0.0795,0.0175,0.0955,-0.1025
-0.0085,0.0055,0.014,0.0015,-0.011,0.01,0.024,-0.0925,-0.0235,0.044,0.056,0.08,0.018,0.092,-0.102
-0.0055,0.008,0.014,-0.001,-0.0095,0.011,0.0215,-0.0915,-0.0235,0.043,0.053,0.0795,0.018,0.093,-0.103
-0.006,0.01,0.016,-0.0015,-0.0105,0.013,0.022,-0.0895,-0.023,0.0425,0.053,0.0815,0.018,0.1005,-0.1025
0.002,0.0205,0.0185,-0.011,-0.008,0.0195,0.0255,-0.0905,-0.0265,0.0415,0.0515,0.0775,0.017,0.0995,-0.101
0.0,0.023,0.0235,-0.0115,-0.0115,0.0235,0.0235,-0.0935,-0.027,0.0405,0.05,0.0765,0.014,0.093,-0.1005
-0.0045,0.0255,0.03,-0.0105,-0.017,0.0275,0.0225,-0.092,-0.027,0.039,0.0495,0.0745,0.012,0.096,-0.1005
-0.0005,0.029,0.03,-0.014,-0.015,0.0295,0.021,-0.093,-0.026,0.04,0.05,0.075,0.0125,0.1025,-0.1
-0.0025,0.028,0.031,-0.0125,-0.0165,0.0295,0.025,-0.094,-0.0265,0.0385,0.0475,0.0755,0.0105,0.111,-0.103
-0.0055,0.028,0.034,-0.011,-0.02,0.031,0.0285,-0.0955,-0.0315,0.0345,0.043,0.069,0.007,0.1065,-0.1035
0.0005,0.032,0.0315,-0.0165,-0.015,0.032,0.02,-0.0985,-0.0305,0.0375,0.045,0.0705,0.0115,0.108,-0.103
0.0035,0.0395,0.036,-0.0215,-0.016,0.0375,0.0215,-0.0945,-0.028,0.04,0.05,0.0765,0.0155,0.111,-0.102
-0.003,0.034,0.037,-0.0155,-0.0195,0.0355,0.0255,-0.092,-0.031,0.0385,0.0495,0.075,0.0125,0.1015,-0.1005
-0.004,0.0275,0.032,-0.0115,-0.0175,0.0295,0.0235,-0.096,-0.029,0.039,0.05,0.0745,0.0125,0.097,-0.1025
-0.0055,0.0265,0.032,-0.01,-0.0185,0.029,0.0215,-0.095,-0.027,0.0385,0.048,0.0725,0.0095,0.095,-0.106
-0.0035,0.0265,0.03,-0.011,-0.0165,0.0285,0.023,-0.095,-0.033,0.0335,0.0435,0.069,0.007,0.096,-0.108
-0.0015,0.0295,0.031,-0.0135,-0.016,0.03,0.0245,-0.0935,-0.0305,0.035,0.046,0.072,0.012,0.094,-0.107
0.005,0.0385,0.033,-0.0215,-0.0135,0.036,0.0225,-0.0915,-0.028,0.0375,0.049,0.074,0.0155,0.097,-0.107
0.0095,0.042,0.032,-0.0255,-0.011,0.037,0.023,-0.094,-0.032,0.0335,0.0465,0.072,0.011,0.104,-0.1065
-0.002,0.0295,0.032,-0.0135,-0.017,0.031,0.0185,-0.1005,-0.035,0.0315,0.0415,0.067,0.005,0.094,-0.105
0.0005,0.0285,0.028,-0.014,-0.0135,0.028,0.0215,-0.099,-0.034,0.033,0.042,0.0665,0.0035,0.096,-0.105
0.004,0.0335,0.0295,-0.0185,-0.0125,0.0315,0.028,-0.089,-0.03,0.035,0.0435,0.069,0.0025,0.1005,-0.106
-0.0035,0.0365,0.04,-0.016,-0.0215,0.0385,0.0285,-0.0875,-0.026,0.0395,0.0485,0.074,0.005,0.096,-0.1085
-0.013,0.033,0.046,-0.0095,-0.0295,0.0395,0.033,-0.0885,-0.0285,0.036,0.0465,0.069,0.0005,0.1075,-0.109
-0.0175,0.03,0.0475,-0.006,-0.0325,0.039,0.03,-0.0915,-0.0305,0.033,0.0435,0.0675,-0.002,0.1105,-0.109
-0.0145,0.0325,0.0475,-0.009,-0.0305,0.04,0.026,-0.0905,-0.03,0.037,0.0475,0.071,-0.001,0.106,-0.109
-0.011,0.0335,0.0445,-0.011,-0.0275,0.039,0.0305,-0.087,-0.0325,0.0345,0.0435,0.0675,-0.0035,0.106,-0.109
-0.0125,0.033,0.0455,-0.01,-0.0285,0.039,0.0335,-0.0855,-0.0295,0.0375,0.048,0.072,0.0005,0.113,-0.1125
-0.017,0.024,0.0405,-0.0035,-0.0285,0.0325,0.032,-0.091,-0.031,0.0345,0.0445,0.069,0.0005,0.1175,-0.1135
-0.0065,0.0275,0.034,-0.01,-0.02,0.031,0.03,-0.0925,-0.0335,0.033,0.0405,0.067,0.0035,0.1255,-0.1115
-0.0015,0.036,0.0375,-0.017,-0.019,0.0365,0.03,-0.0845,-0.0285,0.0355,0.0445,0.072,0.004,0.1135,-0.1105
0.002,0.0355,0.0335,-0.0185,-0.0155,0.0345,0.028,-0.0855,-0.0275,0.035,0.0455,0.073,0.003,0.0965,-0.11
-0.001,0.0275,0.0285,-0.013,-0.0145,0.028,0.0255,-0.0885,-0.031,0.0345,0.0435,0.07,0.004,0.1075,-0.11
-0.0105,0.022,0.0325,-0.0055,-0.0215,0.0275,0.0335,-0.087,-0.0295,0.034,0.0435,0.07,0.0025,0.1055,-0.11
-0.0115,0.022,0.0335,-0.005,-0.0225,0.028,0.035,-0.082,-0.027,0.039,0.048,0.075,0.007,0.095,-0.1085
-0.012,0.0165,0.0285,-0.002,-0.02,0.0225,0.0295,-0.084,-0.0255,0.04,0.049,0.0775,0.0105,0.0935,-0.106
0.0025,0.019,0.0165,-0.0105,-0.0065,0.0175,0.031,-0.087,-0.028,0.039,0.05,0.0795,0.016,0.0935,-0.1045
0.008,0.021,0.0125,-0.014,-0.002,0.0165,0.031,-0.081,-0.0275,0.041,0.0515,0.081,0.0205,0.0935,-0.1055
-0.0085,0.011,0.0195,-0.001,-0.014,0.0155,0.0315,-0.0805,-0.0265,0.0405,0.051,0.083,0.0175,0.091,-0.1035
-0.0125,0.007,0.0195,0.003,-0.016,0.0135,0.033,-0.078,-0.025,0.0415,0.052,0.085,0.0155,0.088,-0.103
-0.0055,0.007,0.0125,-0.0005,-0.009,0.0095,0.031,-0.0795,-0.025,0.042,0.0515,0.0825,0.016,0.089,-0.104
0.0,0.01,0.01,-0.0045,-0.005,0.0095,0.0245,-0.0855,-0.0285,0.039,0.0495,0.08,0.016,0.0855,-0.1025
0.0025,0.0205,0.0175,-0.0115,-0.0075,0.019,0.0235,-0.0875,-0.03,0.038,0.049,0.08,0.0135,0.0865,-0.105
0.0055,0.029,0.0235,-0.017,-0.0085,0.0265,0.0295,-0.081,-0.0255,0.041,0.05,0.081,0.0115,0.0975,-0.106
0.0055,0.0325,0.027,-0.019,-0.0105,0.03,0.029,-0.0785,-0.0225,0.0435,0.05,0.0815,0.0105,0.0985,-0.107
-0.011,0.0235,0.0345,-0.006,-0.0225,0.029,0.026,-0.0905,-0.033,0.0365,0.044,0.075,0.006,0.0985,-0.11
-0.0175,0.021,0.0385,-0.0015,-0.0275,0.03,0.025,-0.086,-0.032,0.036,0.043,0.0715,0.003,0.1025,-0.109
-0.0195,0.025,0.0445,-0.0025,-0.032,0.035,0.0305,-0.078,-0.0305,0.036,0.043,0.069,0.0005,0.113,-0.11
-0.0135,0.0265,0.04,-0.006,-0.0265,0.0335,0.0275,-0.081,-0.033,0.0345,0.0425,0.0675,0.004,0.1145,-0.1115
0.003,0.034,0.031,-0.0185,-0.014,0.0325,0.019,-0.0855,-0.0325,0.035,0.0445,0.0685,0.004,0.1055,-0.111
-0.0075,0.03,0.038,-0.011,-0.0225,0.034,0.023,-0.0875,-0.038,0.031,0.04,0.0655,-0.0015,0.107,-0.1085
-0.011,0.029,0.04,-0.009,-0.025,0.0345,0.0275,-0.087,-0.0375,0.0295,0.0375,0.0635,-0.0025,0.103,-0.1105
-0.013,0.0315,0.0445,-0.009,-0.0285,0.0385,0.0295,-0.0925,-0.037,0.0295,0.038,0.0655,-0.0035,0.106,-0.114
-0.0135,0.03,0.0435,-0.008,-0.0285,0.037,0.032,-0.0885,-0.035,0.031,0.0395,0.067,-0.0025,0.1025,-0.1135
-0.0075,0.033,0.0405,-0.0125,-0.0235,0.0365,0.038,-0.084,-0.034,0.033,0.0405,0.0665,-0.005,0.1025,-0.1155
-0.001,0.0315,0.0325,-0.015,-0.0165,0.032,0.0375,-0.0835,-0.035,0.0335,0.042,0.0695,-0.0025,0.1105,-0.1155
0.008,0.0335,0.025,-0.0205,-0.008,0.0295,0.036,-0.081,-0.0285,0.0365,0.046,0.072,0.0015,0.1115,-0.114
0.0025,0.034,0.0315,-0.018,-0.014,0.033,0.038,-0.08,-0.0245,0.038,0.046,0.071,0.003,0.1125,-0.1155
-0.0005,0.028,0.0285,-0.0135,-0.0145,0.0285,0.037,-0.0725,-0.019,0.0405,0.0455,0.071,0.005,0.1015,-0.117
-0.003,0.021,0.024,-0.009,-0.013,0.0225,0.0465,-0.064,-0.0075,0.0475,0.051,0.0735,0.006,0.093,-0.12
0.0015,0.015,0.0135,-0.008,-0.006,0.014,0.052,-0.063,-0.005,0.049,0.0515,0.0735,0.0085,0.0875,-0.1215
0.006,0.0175,0.0115,-0.0115,-0.0025,0.0145,0.0505,-0.062,-0.0055,0.049,0.053,0.0775,0.011,0.0955,-0.121
-0.0055,0.019,0.0245,-0.0065,-0.015,0.0215,0.0575,-0.0575,-0.0045,0.0505,0.0555,0.08,0.01,0.099,-0.123
-0.0135,0.017,0.03,-0.0015,-0.0215,0.0235,0.062,-0.061,-0.005,0.0495,0.0545,0.0795,0.0075,0.0935,-0.125
-0.002,0.0225,0.0245,-0.01,-0.013,0.0235,0.0595,-0.055,0.0055,0.0595,0.0625,0.087,0.015,0.097,-0.1285
0.0045,0.0255,0.0205,-0.015,-0.0075,0.023,0.0645,-0.04,0.0195,0.0685,0.071,0.0905,0.0195,0.0885,-0.1355
0.0,0.022,0.022,-0.011,-0.011,0.022,0.0695,-0.0285,0.0295,0.073,0.0745,0.0905,0.02,0.087,-0.1435
0.005,0.027,0.0215,-0.0155,-0.008,0.0245,0.0745,-0.0195,0.0335,0.0765,0.0765,0.093,0.0225,0.0985,-0.1455
0.011,0.034,0.023,-0.0225,-0.006,0.029,0.071,-0.0375,0.02,0.07,0.0735,0.0915,0.0225,0.101,-0.14
0.0045,0.0405,0.0355,-0.0225,-0.0155,0.038,0.068,-0.047,0.0085,0.064,0.0685,0.089,0.0195,0.1025,-0.142
-0.0045,0.059,0.064,-0.027,-0.034,0.0615,0.0775,-0.0445,0.008,0.0655,0.067,0.088,0.0155,0.1185,-0.155
0.001,0.078,0.077,-0.039,-0.038,0.0775,0.079,-0.047,0.0105,0.0685,0.069,0.0915,0.018,0.136,-0.1675
-0.0015,0.088,0.089,-0.043,-0.045,0.0885,0.083,-0.047,0.0095,0.065,0.066,0.0915,0.015,0.1475,-0.18
-0.019,0.101,0.12,-0.041,-0.069,0.1105,0.08,-0.0735,-0.0155,0.05,0.054,0.0845,0.0035,0.169,-0.184
-0.019,0.1195,0.1385,-0.05,-0.0785,0.129,0.069,-0.1065,-0.048,0.0325,0.0415,0.0805,-0.0045,0.192,-0.1805
-0.014,0.1345,0.1485,-0.06,-0.081,0.1415,0.063,-0.126,-0.074,0.014,0.029,0.076,-0.0095,0.194,-0.1805
-0.0195,0.1505,0.17,-0.0655,-0.0945,0.1605,0.065,-0.1505,-0.103,-0.0025,0.014,0.069,-0.019,0.2065,-0.187
-0.0185,0.1675,0.1865,-0.074,-0.102,0.177,0.0615,-0.1905,-0.161,-0.0395,-0.0125,0.056,-0.036,0.229,-0.1725
-0.021,0.17,0.191,-0.0745,-0.1055,0.1805,0.0495,-0.2425,-0.236,-0.0875,-0.0455,0.0405,-0.0545,0.2205,-0.1475
-0.033,0.167,0.2,-0.0665,-0.1165,0.184,0.0475,-0.275,-0.2915,-0.121,-0.067,0.031,-0.068,0.2155,-0.132
-0.0365,0.1515,0.188,-0.057,-0.112,0.1695,0.046,-0.292,-0.334,-0.144,-0.0775,0.0305,-0.0725,0.2075,-0.107
-0.0425,0.151,0.1935,-0.054,-0.118,0.172,0.035,-0.335,-0.387,-0.172,-0.0965,0.023,-0.0835,0.214,-0.087
-0.05,0.1725,0.2225,-0.061,-0.136,0.1975,0.015,-0.396,-0.4555,-0.22,-0.1315,-0.0015,-0.108,0.2405,-0.0735
-0.054,0.1895,0.2435,-0.0675,-0.1485,0.2165,-0.0065,-0.455,-0.5235,-0.2605,-0.158,-0.013,-0.124,0.2515,-0.052
-0.06,0.2095,0.2695,-0.0745,-0.1645,0.2395,-0.0265,-0.5295,-0.608,-0.313,-0.194,-0.0285,-0.143,0.2655,-0.0275
-0.057,0.2205,0.2775,-0.0815,-0.167,0.249,-0.055,-0.592,-0.6765,-0.355,-0.221,-0.039,-0.1555,0.2725,0.0005
-0.057,0.223,0.2795,-0.0825,-0.168,0.2515,-0.088,-0.6495,-0.733,-0.3805,-0.2325,-0.035,-0.158,0.2795,0.03
-0.057,0.2315,0.2885,-0.087,-0.1725,0.26,-0.1275,-0.7245,-0.8035,-0.424,-0.259,-0.042,-0.173,0.2925,0.061
-0.0425,0.2565,0.2985,-0.1065,-0.1705,0.2775,-0.1765,-0.797,-0.863,-0.452,-0.275,-0.0405,-0.173,0.3175,0.089
-0.032,0.2825,0.3145,-0.125,-0.173,0.2985,-0.2235,-0.883,-0.9405,-0.5005,-0.3045,-0.047,-0.181,0.336,0.1265
-0.024,0.301,0.325,-0.1385,-0.174,0.313,-0.2665,-0.9525,-1.014,-0.55,-0.3355,-0.0545,-0.1885,0.3495,0.17
-0.015,0.302,0.317,-0.1435,-0.1655,0.3095,-0.303,-1.0135,-1.063,-0.577,-0.348,-0.052,-0.1835,0.3575,0.1995
-0.0025,0.312,0.314,-0.1545,-0.158,0.313,-0.3355,-1.093,-1.127,-0.6175,-0.3755,-0.0595,-0.1935,0.361,0.226
0.0175,0.3295,0.312,-0.1735,-0.147,0.3205,-0.378,-1.1565,-1.179,-0.646,-0.3895,-0.0545,-0.19,0.368,0.257
0.024,0.326,0.3015,-0.175,-0.138,0.3135,-0.421,-1.219,-1.236,-0.682,-0.412,-0.0555,-0.188,0.3635,0.2945
0.028,0.318,0.29,-0.1725,-0.1305,0.3035,-0.453,-1.2865,-1.3155,-0.7435,-0.4595,-0.076,-0.2055,0.363,0.3355
0.0305,0.3185,0.288,-0.174,-0.1285,0.303,-0.467,-1.35,-1.391,-0.816,-0.517,-0.109,-0.238,0.365,0.371
0.0175,0.3035,0.2855,-0.16,-0.1335,0.2945,-0.461,-1.407,-1.477,-0.906,-0.5965,-0.162,-0.295,0.3555,0.4115
0.0105,0.2725,0.262,-0.1415,-0.1255,0.2675,-0.4665,-1.47,-1.5795,-1.008,-0.6815,-0.215,-0.3485,0.337,0.4765
0.0195,0.255,0.2355,-0.137,-0.108,0.245,-0.5025,-1.5395,-1.6805,-1.099,-0.7555,-0.2525,-0.38,0.3295,0.551
0.019,0.206,0.187,-0.1125,-0.0835,0.1965,-0.5345,-1.5925,-1.755,-1.173,-0.816,-0.2865,-0.4025,0.305,0.6185
0.024,0.1685,0.1445,-0.096,-0.06,0.1565,-0.5525,-1.6465,-1.8285,-1.2475,-0.8755,-0.3225,-0.432,0.2765,0.678
0.038,0.1425,0.105,-0.09,-0.0335,0.1235,-0.5845,-1.6985,-1.902,-1.3185,-0.933,-0.3535,-0.4605,0.2425,0.7335
0.063,0.086,0.023,-0.074,0.0205,0.0545,-0.619,-1.7295,-1.945,-1.365,-0.9675,-0.368,-0.4635,0.187,0.7905
0.0965,0.0045,-0.0925,-0.0505,0.0945,-0.044,-0.631,-1.7255,-1.9555,-1.3825,-0.9785,-0.3735,-0.457,0.103,0.837
0.1135,-0.119,-0.233,0.003,0.1735,-0.176,-0.627,-1.701,-1.9415,-1.3815,-0.9765,-0.373,-0.4405,-0.015,0.88
0.144,-0.2325,-0.3765,0.0445,0.2605,-0.3045,-0.627,-1.669,-1.9155,-1.363,-0.955,-0.3575,-0.407,-0.1085,0.9215
0.185,-0.3175,-0.5025,0.0665,0.344,-0.41,-0.6415,-1.6455,-1.8915,-1.3475,-0.936,-0.337,-0.377,-0.179,0.9565
0.2125,-0.382,-0.5945,0.085,0.4035,-0.4885,-0.6755,-1.6445,-1.887,-1.3455,-0.9275,-0.324,-0.352,-0.236,0.998
0.244,-0.436,-0.6805,0.0965,0.4625,-0.5585,-0.7035,-1.6285,-1.869,-1.328,-0.908,-0.303,-0.3215,-0.2975,1.033
0.2695,-0.5095,-0.779,0.1205,0.5245,-0.6445,-0.715,-1.616,-1.8595,-1.3325,-0.9105,-0.303,-0.3125,-0.369,1.0655
0.294,-0.5735,-0.8675,0.14,0.581,-0.7205,-0.72,-1.5985,-1.8545,-1.3435,-0.9175,-0.311,-0.3095,-0.413,1.093
0.3255,-0.623,-0.9485,0.149,0.6375,-0.7855,-0.7175,-1.5595,-1.819,-1.3225,-0.8975,-0.2925,-0.283,-0.4505,1.1105
0.339,-0.6885,-1.028,0.175,0.6835,-0.8585,-0.686,-1.4985,-1.773,-1.304,-0.888,-0.2975,-0.2755,-0.5135,1.116
0.332,-0.7535,-1.086,0.211,0.7095,-0.9195,-0.635,-1.427,-1.7155,-1.278,-0.877,-0.308,-0.2765,-0.5705,1.105
0.309,-0.805,-1.114,0.248,0.7115,-0.9595,-0.5905,-1.3655,-1.6625,-1.255,-0.8685,-0.3205,-0.2825,-0.5975,1.088
0.2895,-0.8565,-1.146,0.284,0.718,-1.0015,-0.5235,-1.264,-1.579,-1.2165,-0.859,-0.355,-0.3035,-0.6355,1.0565
0.269,-0.9115,-1.18,0.3215,0.7245,-1.0455,-0.451,-1.143,-1.4715,-1.1645,-0.8435,-0.3925,-0.3265,-0.6865,1.016
0.2635,-0.9495,-1.213,0.3435,0.7385,-1.0815,-0.3915,-1.026,-1.3605,-1.1035,-0.812,-0.407,-0.3325,-0.732,0.97
0.2745,-0.977,-1.2515,0.3515,0.763,-1.114,-0.3455,-0.924,-1.2605,-1.038,-0.7695,-0.4005,-0.3165,-0.7775,0.9295
0.273,-0.979,-1.252,0.353,0.7625,-1.1155,-0.325,-0.858,-1.2055,-1.0155,-0.765,-0.418,-0.3185,-0.7805,0.9035
0.2845,-0.96,-1.2445,0.338,0.765,-1.102,-0.312,-0.8,-1.155,-0.997,-0.7665,-0.441,-0.32,-0.7635,0.874
0.299,-0.9455,-1.2445,0.3235,0.772,-1.095,-0.299,-0.7425,-1.1,-0.9645,-0.7505,-0.4445,-0.304,-0.7615,0.845
0.3105,-0.935,-1.245,0.3125,0.778,-1.09,-0.2815,-0.6935,-1.0625,-0.952,-0.749,-0.453,-0.297,-0.7675,0.8245
0.285,-0.897,-1.1825,0.306,0.734,-1.04,-0.2555,-0.672,-1.029,-0.9315,-0.7425,-0.457,-0.3045,-0.7395,0.7965
0.2165,-0.809,-1.0255,0.2965,0.6215,-0.9175,-0.226,-0.6555,-0.9675,-0.8725,-0.7015,-0.4365,-0.3155,-0.6345,0.737
0.1625,-0.7405,-0.903,0.289,0.533,-0.8215,-0.19,-0.626,-0.8995,-0.8095,-0.655,-0.413,-0.317,-0.559,0.677
0.117,-0.6885,-0.8055,0.286,0.4615,-0.747,-0.1555,-0.595,-0.8455,-0.7575,-0.6195,-0.396,-0.3155,-0.5,0.631
0.103,-0.622,-0.7255,0.2595,0.4145,-0.6735,-0.146,-0.5665,-0.7855,-0.7025,-0.574,-0.3655,-0.2935,-0.424,0.5845
0.087,-0.58,-0.6665,0.247,0.377,-0.6235,-0.1425,-0.556,-0.747,-0.665,-0.5445,-0.3465,-0.277,-0.3885,0.5495
0.087,-0.536,-0.623,0.225,0.3555,-0.5795,-0.141,-0.541,-0.707,-0.626,-0.514,-0.325,-0.258,-0.363,0.513
0.0945,-0.498,-0.5925,0.202,0.3435,-0.5455,-0.1425,-0.526,-0.669,-0.588,-0.4825,-0.3045,-0.2425,-0.339,0.483
0.0535,-0.48,-0.5335,0.2135,0.294,-0.507,-0.1155,-0.506,-0.64,-0.5685,-0.473,-0.3065,-0.2555,-0.315,0.457
0.04,-0.4555,-0.4955,0.208,0.268,-0.4755,-0.1035,-0.483,-0.61,-0.549,-0.4605,-0.3,-0.254,-0.286,0.4315
0.025,-0.438,-0.463,0.207,0.2445,-0.4505,-0.094,-0.4705,-0.5915,-0.5335,-0.4495,-0.2965,-0.259,-0.261,0.4105
-0.0055,-0.414,-0.4085,0.21,0.202,-0.4115,-0.0755,-0.4575,-0.5625,-0.506,-0.4315,-0.289,-0.264,-0.2175,0.378
-0.028,-0.382,-0.354,0.205,0.1635,-0.368,-0.068,-0.438,-0.5215,-0.463,-0.3985,-0.2685,-0.2575,-0.171,0.3415
-0.0545,-0.35,-0.295,0.2025,0.1205,-0.3225,-0.044,-0.4015,-0.4705,-0.4155,-0.362,-0.252,-0.26,-0.143,0.299
-0.0735,-0.3195,-0.246,0.1965,0.0865,-0.283,-0.028,-0.373,-0.4255,-0.374,-0.328,-0.231,-0.2515,-0.109,0.2635
-0.0815,-0.288,-0.2065,0.185,0.0625,-0.2475,-0.016,-0.3395,-0.3705,-0.3185,-0.2775,-0.196,-0.2275,-0.085,0.2225
-0.08,-0.25,-0.17,0.165,0.0455,-0.21,-0.001,-0.2955,-0.304,-0.2515,-0.222,-0.1575,-0.199,-0.0615,0.172
-0.0625,-0.2195,-0.157,0.1415,0.0475,-0.188,0.0015,-0.27,-0.266,-0.21,-0.183,-0.126,-0.172,-0.036,0.1425
-0.061,-0.194,-0.1335,0.1275,0.0365,-0.1635,0.0065,-0.2525,-0.2385,-0.183,-0.159,-0.1085,-0.163,-0.022,0.1215
-0.0625,-0.164,-0.1015,0.1135,0.0195,-0.133,0.0115,-0.2355,-0.2105,-0.156,-0.139,-0.0935,-0.1575,0.0005,0.0965
-0.0645,-0.1415,-0.0775,0.103,0.0065,-0.1095,0.015,-0.224,-0.192,-0.139,-0.1235,-0.0795,-0.148,0.028,0.077
-0.069,-0.124,-0.055,0.0965,-0.007,-0.0895,0.0195,-0.201,-0.1625,-0.115,-0.104,-0.065,-0.134,0.046,0.051
-0.0505,-0.0985,-0.048,0.0745,-0.001,-0.073,0.0315,-0.1675,-0.1235,-0.0795,-0.072,-0.0405,-0.1125,0.0615,0.025
-0.041,-0.0795,-0.039,0.0605,-0.001,-0.0595,0.043,-0.139,-0.085,-0.0425,-0.04,-0.017,-0.093,0.065,0.001
-0.036,-0.068,-0.032,0.052,-0.0015,-0.05,0.0465,-0.1075,-0.047,-0.011,-0.0155,-0.002,-0.075,0.057,-0.0235
-0.026,-0.056,-0.03,0.0415,0.002,-0.043,0.0625,-0.0795,-0.0165,0.01,-0.002,0.006,-0.0645,0.0565,-0.042
-0.0255,-0.057,-0.0315,0.0415,0.003,-0.0445,0.07,-0.0565,0.007,0.027,0.0125,0.0175,-0.051,0.0485,-0.0595
-0.028,-0.066,-0.038,0.0475,0.0055,-0.052,0.0715,-0.042,0.0215,0.035,0.0185,0.0195,-0.0425,0.041,-0.0735
-0.0305,-0.0605,-0.03,0.0455,0.0,-0.045,0.0795,-0.0255,0.039,0.049,0.03,0.0255,-0.035,0.043,-0.0885
-0.0115,-0.046,-0.0345,0.029,0.012,-0.04,0.088,-0.008,0.059,0.0715,0.0525,0.045,-0.0145,0.036,-0.1025
0.0075,-0.0395,-0.047,0.0165,0.0275,-0.043,0.0905,0.009,0.0795,0.091,0.0695,0.058,0.0015,0.03,-0.1125
0.004,-0.0405,-0.045,0.0185,0.025,-0.043,0.09,0.019,0.0955,0.1055,0.0815,0.0645,0.0095,0.034,-0.1215
0.0075,-0.0375,-0.045,0.015,0.0265,-0.041,0.086,0.019,0.1015,0.1115,0.0875,0.068,0.0175,0.0465,-0.1265
-0.001,-0.035,-0.034,0.018,0.017,-0.0345,0.0915,0.0255,0.109,0.1155,0.0905,0.07,0.0165,0.052,-0.131
-0.019,-0.0405,-0.022,0.03,0.002,-0.0315,0.102,0.033,0.1115,0.1175,0.091,0.0725,0.009,0.05,-0.134
-0.01,-0.041,-0.0315,0.026,0.011,-0.0365,0.095,0.034,0.1125,0.1205,0.0945,0.0755,0.016,0.049,-0.1365
0.001,-0.0355,-0.0365,0.0175,0.019,-0.036,0.0935,0.035,0.1185,0.1265,0.1025,0.082,0.026,0.051,-0.1395
-0.0195,-0.0365,-0.017,0.0285,-0.001,-0.0265,0.096,0.034,0.1195,0.1285,0.103,0.08,0.0225,0.063,-0.144
-0.03,-0.032,-0.002,0.0315,-0.0135,-0.017,0.0945,0.03,0.116,0.1255,0.1,0.077,0.0165,0.059,-0.1495
-0.0095,-0.0115,-0.002,0.011,-0.0035,-0.0065,0.0925,0.036,0.1205,0.1285,0.1035,0.0835,0.0195,0.063,-0.1505
-0.0035,0.0025,0.006,0.001,-0.0045,0.004,0.093,0.032,0.116,0.123,0.0965,0.0785,0.0165,0.0705,-0.156
-0.008,0.0075,0.016,0.0005,-0.0115,0.012,0.0915,0.0235,0.107,0.1165,0.094,0.0775,0.0135,0.0805,-0.158
0.0005,0.013,0.0125,-0.0065,-0.006,0.013,0.0845,0.0245,0.106,0.118,0.0985,0.084,0.0205,0.084,-0.157
-0.0015,0.0105,0.0115,-0.004,-0.006,0.011,0.09,0.023,0.099,0.113,0.0955,0.0825,0.018,0.075,-0.1575
-0.009,0.015,0.024,-0.0025,-0.0165,0.0195,0.0965,0.025,0.0985,0.1145,0.0995,0.0835,0.014,0.088,-0.1605
-0.003,0.0225,0.026,-0.0095,-0.014,0.024,0.0915,0.028,0.103,0.123,0.107,0.0875,0.0195,0.075,-0.1635
-0.003,0.0175,0.0205,-0.007,-0.0115,0.019,0.093,0.0265,0.1,0.123,0.107,0.089,0.0235,0.065,-0.16
-0.0155,0.009,0.0245,0.0035,-0.02,0.0165,0.096,0.0285,0.1005,0.1225,0.106,0.0875,0.0215,0.0775,-0.161
-0.0085,0.012,0.0205,-0.0015,-0.014,0.016,0.091,0.032,0.1075,0.1315,0.115,0.0925,0.0265,0.0815,-0.1655
0.005,0.019,0.014,-0.0115,-0.0045,0.0165,0.089,0.0355,0.112,0.136,0.118,0.096,0.0295,0.0755,-0.165
0.0035,0.0215,0.018,-0.012,-0.007,0.0195,0.0985,0.0425,0.1165,0.1425,0.123,0.1015,0.0325,0.0735,-0.168
0.0015,0.0225,0.021,-0.0115,-0.0095,0.022,0.099,0.0455,0.1285,0.1545,0.1335,0.109,0.038,0.0775,-0.172
0.0,0.015,0.015,-0.007,-0.007,0.015,0.092,0.0465,0.1325,0.1605,0.1365,0.1105,0.0425,0.0725,-0.1745
0.0025,0.0125,0.01,-0.0075,-0.0035,0.011,0.102,0.0525,0.1365,0.167,0.1435,0.116,0.0455,0.076,-0.1745
0.0055,0.0115,0.006,-0.0085,0.0,0.0085,0.1095,0.059,0.145,0.1735,0.1495,0.122,0.0455,0.0785,-0.174
0.006,0.0035,-0.0025,-0.0045,0.0045,0.0005,0.1075,0.0595,0.1455,0.177,0.154,0.1255,0.051,0.0765,-0.1755
0.0025,-0.0015,-0.004,-0.0005,0.004,-0.003,0.1045,0.0555,0.142,0.1745,0.154,0.127,0.053,0.073,-0.1755
0.0085,-0.0005,-0.0095,-0.004,0.0095,-0.005,0.099,0.0525,0.139,0.1745,0.154,0.13,0.0545,0.067,-0.177
0.018,0.0085,-0.0095,-0.013,0.014,-0.0005,0.0935,0.0525,0.1395,0.1755,0.1565,0.1305,0.057,0.068,-0.178
0.0315,0.023,-0.008,-0.027,0.02,0.0075,0.0925,0.054,0.139,0.174,0.156,0.1335,0.0585,0.0705,-0.1775
0.0175,0.0225,0.005,-0.0195,0.0065,0.0135,0.095,0.05,0.132,0.167,0.1515,0.133,0.057,0.086,-0.178
0.0015,0.019,0.0175,-0.01,-0.008,0.0185,0.096,0.046,0.125,0.159,0.1445,0.127,0.053,0.0935,-0.177
0.02,0.027,0.007,-0.023,0.0065,0.017,0.0905,0.043,0.1265,0.159,0.1455,0.1305,0.0605,0.066,-0.1735
0.015,0.019,0.004,-0.0165,0.006,0.011,0.0915,0.043,0.1275,0.1595,0.1455,0.132,0.0635,0.065,-0.1735
0.011,0.016,0.0055,-0.013,0.003,0.011,0.0935,0.0505,0.131,0.163,0.147,0.1315,0.063,0.0755,-0.1785
0.0205,0.03,0.01,-0.025,0.0055,0.02,0.094,0.0555,0.136,0.1645,0.15,0.1345,0.0635,0.0775,-0.1805
0.0185,0.0345,0.016,-0.0265,0.0015,0.0255,0.0975,0.0565,0.1335,0.161,0.1465,0.1305,0.058,0.0905,-0.1785
0.0195,0.036,0.0165,-0.0275,0.0015,0.0265,0.095,0.0565,0.1355,0.1645,0.146,0.1275,0.0575,0.0865,-0.182
0.0115,0.035,0.024,-0.023,-0.006,0.0295,0.094,0.058,0.139,0.166,0.1465,0.1265,0.0555,0.092,-0.184
0.0055,0.0375,0.032,-0.0215,-0.0125,0.0345,0.0965,0.0575,0.1375,0.163,0.1435,0.1235,0.051,0.097,-0.184
0.013,0.0405,0.0275,-0.0265,-0.007,0.034,0.0985,0.053,0.1395,0.1635,0.143,0.122,0.049,0.087,-0.187
0.013,0.0385,0.0255,-0.0255,-0.006,0.032,0.094,0.0595,0.141,0.163,0.141,0.1185,0.048,0.08,-0.1875
0.0125,0.042,0.029,-0.027,-0.008,0.0355,0.089,0.0605,0.144,0.167,0.145,0.125,0.0545,0.082,-0.1915
0.018,0.036,0.0185,-0.027,0.0,0.0275,0.086,0.0555,0.1475,0.1705,0.1495,0.1315,0.0595,0.0815,-0.1925
0.008,0.024,0.016,-0.016,-0.0035,0.02,0.091,0.066,0.1475,0.1695,0.1485,0.129,0.0585,0.0845,-0.1905
-0.021,0.007,0.028,0.007,-0.0245,0.0175,0.104,0.0665,0.145,0.165,0.144,0.123,0.0525,0.095,-0.1895
-0.0235,0.003,0.0265,0.0105,-0.025,0.015,0.106,0.0585,0.142,0.1635,0.1425,0.1205,0.0485,0.0905,-0.188
0.0035,0.018,0.0145,-0.0105,-0.005,0.016,0.1,0.066,0.1485,0.1685,0.1495,0.1275,0.058,0.0815,-0.188
0.009,0.0215,0.012,-0.015,-0.001,0.0165,0.0955,0.0685,0.1485,0.168,0.1485,0.127,0.06,0.077,-0.188
0.0015,0.0145,0.0125,-0.008,-0.005,0.0135,0.0975,0.063,0.146,0.168,0.149,0.1255,0.058,0.0805,-0.1875
0.003,0.0145,0.0115,-0.0085,-0.004,0.013,0.0985,0.064,0.1475,0.168,0.149,0.1275,0.061,0.0805,-0.186
0.0105,0.025,0.0145,-0.017,-0.002,0.0195,0.0975,0.07,0.147,0.1685,0.1505,0.1305,0.0625,0.089,-0.1865
0.0125,0.0265,0.014,-0.019,-0.0005,0.02,0.0955,0.067,0.152,0.174,0.156,0.134,0.0645,0.099,-0.1875
0.0055,0.025,0.0195,-0.015,-0.0065,0.022,0.0965,0.065,0.1535,0.173,0.1495,0.1285,0.0585,0.0955,-0.19
0.019,0.0355,0.017,-0.027,0.0015,0.026,0.101,0.068,0.1535,0.1685,0.1485,0.127,0.0535,0.0915,-0.1895
0.024,0.0385,0.015,-0.031,0.0045,0.0265,0.0985,0.067,0.1545,0.168,0.1505,0.1275,0.055,0.08,-0.188
0.0105,0.0305,0.02,-0.0205,-0.0045,0.0255,0.103,0.0745,0.16,0.1705,0.153,0.1295,0.057,0.076,-0.1905
0.0115,0.0215,0.01,-0.016,0.001,0.0155,0.109,0.079,0.164,0.1735,0.1555,0.1315,0.0585,0.0835,-0.19
0.022,0.015,-0.007,-0.018,0.0145,0.004,0.107,0.0805,0.162,0.171,0.153,0.1295,0.059,0.075,-0.19
0.0155,0.008,-0.008,-0.0115,0.012,0.0,0.1095,0.083,0.1655,0.1735,0.1545,0.131,0.058,0.0735,-0.192
0.0085,0.002,-0.0065,-0.0055,0.008,-0.002,0.1075,0.079,0.1655,0.175,0.1535,0.1305,0.059,0.0795,-0.192
0.0135,0.007,-0.0065,-0.01,0.0105,0.0,0.1015,0.083,0.171,0.1785,0.1585,0.1355,0.0625,0.0715,-0.193
0.0045,0.01,0.0055,-0.007,0.0,0.0075,0.1095,0.088,0.1745,0.1835,0.1615,0.138,0.0625,0.075,-0.1955
0.005,0.012,0.0075,-0.0085,-0.001,0.0095,0.111,0.086,0.171,0.18,0.1585,0.134,0.0595,0.08,-0.1945
0.0085,0.015,0.0065,-0.0115,0.0015,0.0105,0.1055,0.089,0.1725,0.1825,0.16,0.1355,0.0575,0.078,-0.1945
0.015,0.02,0.005,-0.017,0.005,0.0125,0.101,0.085,0.1685,0.1805,0.158,0.135,0.0585,0.0825,-0.194
0.016,0.0225,0.0065,-0.019,0.005,0.0145,0.095,0.078,0.1645,0.1765,0.1545,0.1345,0.0595,0.087,-0.1925
0.012,0.024,0.012,-0.0175,0.0,0.018,0.095,0.0805,0.1635,0.1755,0.1515,0.1325,0.0575,0.0915,-0.1945
0.0105,0.028,0.0175,-0.019,-0.003,0.0225,0.097,0.0855,0.1645,0.174,0.1505,0.131,0.0555,0.105,-0.1965
0.0,0.031,0.031,-0.015,-0.0155,0.031,0.0965,0.0815,0.1625,0.172,0.1475,0.1275,0.0515,0.105,-0.198
-0.002,0.036,0.0375,-0.0165,-0.0195,0.037,0.093,0.0735,0.1625,0.17,0.145,0.121,0.0485,0.101,-0.197
0.003,0.043,0.04,-0.023,-0.018,0.0415,0.098,0.0795,0.167,0.1735,0.1485,0.1225,0.048,0.107,-0.199
0.0195,0.0575,0.038,-0.0385,-0.009,0.048,0.106,0.091,0.173,0.178,0.153,0.1255,0.0495,0.1015,-0.204
0.029,0.061,0.032,-0.045,-0.001,0.0465,0.103,0.0935,0.1775,0.1805,0.154,0.125,0.054,0.099,-0.2045
0.017,0.0545,0.0375,-0.0355,-0.01,0.046,0.102,0.0925,0.177,0.178,0.1525,0.1225,0.054,0.1065,-0.202
0.006,0.051,0.0445,-0.028,-0.019,0.048,0.0995,0.0895,0.174,0.1755,0.148,0.1205,0.0555,0.1045,-0.196
0.009,0.053,0.044,-0.0305,-0.0175,0.0485,0.0935,0.087,0.1715,0.1735,0.1455,0.1215,0.0585,0.1025,-0.196
0.013,0.0535,0.0405,-0.033,-0.0135,0.047,0.0955,0.092,0.176,0.1725,0.1465,0.119,0.055,0.092,-0.2015
0.0025,0.043,0.0405,-0.0225,-0.0185,0.0415,0.0965,0.093,0.176,0.1725,0.147,0.1195,0.056,0.0895,-0.2025
0.006,0.0395,0.0335,-0.0225,-0.0135,0.0365,0.098,0.0915,0.175,0.1755,0.1485,0.1225,0.058,0.102,-0.201
0.0135,0.0415,0.028,-0.027,-0.007,0.0345,0.1025,0.096,0.18,0.18,0.1525,0.1245,0.0575,0.096,-0.2025
0.006,0.037,0.031,-0.0215,-0.012,0.034,0.105,0.098,0.183,0.1805,0.155,0.1285,0.0585,0.1025,-0.204
0.006,0.031,0.0255,-0.0185,-0.0095,0.0285,0.108,0.098,0.1845,0.1815,0.156,0.129,0.0585,0.1055,-0.207
0.0065,0.0245,0.018,-0.0155,-0.0055,0.0215,0.111,0.1065,0.1905,0.187,0.161,0.137,0.0635,0.083,-0.2055
0.0135,0.0105,-0.003,-0.0115,0.0085,0.0035,0.113,0.1095,0.193,0.1885,0.1645,0.1395,0.069,0.072,-0.2005
0.0125,0.002,-0.0105,-0.007,0.0115,-0.004,0.118,0.1125,0.1945,0.19,0.1655,0.1395,0.068,0.072,-0.203
0.0025,0.003,0.0005,-0.0025,0.001,0.002,0.123,0.12,0.2005,0.1955,0.1695,0.1455,0.068,0.0645,-0.203
0.004,0.0025,-0.0015,-0.003,0.003,0.0005,0.1255,0.1205,0.202,0.1975,0.1715,0.147,0.0695,0.068,-0.2015
0.0095,0.0075,-0.0025,-0.008,0.006,0.0025,0.124,0.1255,0.2045,0.199,0.172,0.1485,0.0715,0.078,-0.203
0.0085,0.007,-0.0015,-0.0075,0.0055,0.0025,0.1215,0.1205,0.1995,0.1965,0.1705,0.1475,0.071,0.075,-0.2025
0.011,0.0105,-0.0005,-0.0105,0.006,0.005,0.115,0.116,0.199,0.196,0.17,0.1465,0.07,0.0765,-0.2025
0.024,0.0175,-0.007,-0.0205,0.0155,0.005,0.1105,0.1225,0.206,0.2005,0.172,0.15,0.072,0.0705,-0.2035
0.024,0.016,-0.008,-0.02,0.0165,0.004,0.113,0.1195,0.1995,0.1935,0.165,0.1425,0.0665,0.0725,-0.2045
0.0115,0.0195,0.008,-0.015,0.002,0.0135,0.1175,0.1225,0.201,0.194,0.1635,0.1395,0.062,0.091,-0.2085
0.0055,0.025,0.0195,-0.015,-0.007,0.0225,0.116,0.13,0.2105,0.202,0.17,0.145,0.0635,0.098,-0.2105
0.022,0.037,0.015,-0.0295,0.0035,0.026,0.1105,0.1285,0.2085,0.2,0.166,0.1415,0.0615,0.099,-0.2135
0.024,0.04,0.0155,-0.032,0.0045,0.0275,0.1135,0.1315,0.21,0.1985,0.1645,0.141,0.061,0.0905,-0.215
0.014,0.03,0.016,-0.0215,-0.001,0.023,0.112,0.1355,0.211,0.196,0.1635,0.1355,0.056,0.084,-0.2155
0.0185,0.0335,0.015,-0.026,0.002,0.0245,0.118,0.133,0.2105,0.195,0.162,0.135,0.054,0.087,-0.218
0.013,0.0335,0.021,-0.023,-0.0035,0.0275,0.123,0.14,0.2165,0.2015,0.1665,0.1405,0.057,0.0945,-0.2205
-0.0055,0.019,0.0245,-0.0065,-0.015,0.022,0.118,0.14,0.217,0.201,0.1645,0.138,0.06,0.0915,-0.2225
-0.007,0.021,0.028,-0.0065,-0.0175,0.0245,0.117,0.137,0.2155,0.198,0.162,0.137,0.0625,0.0805,-0.2225
-0.0015,0.025,0.0265,-0.0115,-0.0135,0.0255,0.116,0.1485,0.22,0.2015,0.1625,0.1365,0.0635,0.0845,-0.222
0.01,0.028,0.0185,-0.019,-0.004,0.023,0.121,0.1515,0.2245,0.205,0.167,0.139,0.069,0.083,-0.222
0.0085,0.0255,0.0175,-0.017,-0.0045,0.0215,0.119,0.1515,0.228,0.208,0.17,0.141,0.072,0.0835,-0.221
0.0035,0.0235,0.02,-0.0135,-0.008,0.0215,0.122,0.1545,0.231,0.21,0.171,0.1385,0.0705,0.089,-0.223
0.015,0.031,0.0165,-0.023,-0.0005,0.024,0.127,0.1525,0.229,0.2075,0.1685,0.136,0.0665,0.095,-0.2255
0.005,0.025,0.02,-0.015,-0.0075,0.0225,0.1285,0.155,0.23,0.206,0.1665,0.1355,0.065,0.106,-0.2265
-0.01,0.0165,0.0265,-0.003,-0.018,0.0215,0.1345,0.1595,0.2315,0.204,0.163,0.1305,0.0585,0.0925,-0.23
-0.009,0.0145,0.0235,-0.0025,-0.016,0.0185,0.1335,0.158,0.2285,0.198,0.155,0.123,0.0505,0.0845,-0.2325
0.0025,0.022,0.019,-0.012,-0.008,0.0205,0.1285,0.1615,0.2345,0.2015,0.1585,0.126,0.0535,0.081,-0.2335
-0.0055,0.016,0.021,-0.005,-0.013,0.0185,0.125,0.16,0.231,0.1995,0.156,0.124,0.05,0.081,-0.2345
-0.0115,0.0085,0.0195,0.0015,-0.015,0.014,0.1315,0.1595,0.2305,0.1975,0.1525,0.121,0.047,0.086,-0.235
0.002,0.0235,0.0215,-0.0125,-0.0095,0.0225,0.1345,0.17,0.238,0.2025,0.16,0.1275,0.0515,0.087,-0.238
0.011,0.0315,0.0205,-0.021,-0.0045,0.026,0.141,0.1725,0.2405,0.2055,0.1615,0.1325,0.053,0.097,-0.241
0.018,0.0315,0.013,-0.0245,0.0025,0.0225,0.1435,0.18,0.248,0.21,0.1655,0.1325,0.052,0.09,-0.2415
0.0185,0.0325,0.014,-0.025,0.0025,0.023,0.139,0.181,0.249,0.211,0.168,0.1305,0.052,0.0845,-0.242
0.016,0.027,0.011,-0.021,0.0025,0.019,0.1415,0.18,0.2515,0.2125,0.171,0.134,0.054,0.0795,-0.2445
0.002,0.0135,0.011,-0.0075,-0.0045,0.0125,0.14,0.1875,0.253,0.2115,0.17,0.132,0.0515,0.0835,-0.248
-0.0045,0.007,0.011,-0.001,-0.0075,0.009,0.1385,0.184,0.249,0.2075,0.1605,0.1245,0.047,0.0805,-0.2465
0.01,0.016,0.006,-0.0125,0.002,0.011,0.136,0.185,0.2495,0.2075,0.159,0.123,0.0475,0.0685,-0.2475
0.004,0.023,0.0195,-0.0135,-0.0075,0.0215,0.145,0.188,0.251,0.2095,0.161,0.125,0.0435,0.082,-0.252
0.0025,0.0215,0.019,-0.0115,-0.008,0.02,0.149,0.194,0.257,0.2125,0.164,0.126,0.0435,0.086,-0.2505
0.007,0.0165,0.0095,-0.0115,-0.001,0.013,0.1445,0.2005,0.26,0.2145,0.167,0.1285,0.0455,0.085,-0.251
-0.004,0.0145,0.0185,-0.005,-0.011,0.0165,0.1525,0.203,0.264,0.2175,0.1685,0.1305,0.0435,0.0845,-0.2565
-0.004,0.016,0.0195,-0.0055,-0.0115,0.018,0.1545,0.205,0.2655,0.2175,0.1675,0.127,0.041,0.085,-0.258
0.007,0.022,0.015,-0.0145,-0.0035,0.0185,0.154,0.2075,0.268,0.22,0.1675,0.1275,0.0425,0.082,-0.261
0.0035,0.029,0.026,-0.016,-0.011,0.0275,0.1605,0.2125,0.2745,0.225,0.1705,0.1295,0.043,0.0915,-0.2665
-0.012,0.0235,0.0355,-0.0055,-0.0235,0.0295,0.162,0.211,0.2705,0.218,0.163,0.1195,0.0365,0.1085,-0.2675
-0.0045,0.027,0.0315,-0.011,-0.0175,0.029,0.154,0.2135,0.274,0.219,0.1615,0.115,0.0365,0.0965,-0.2665
0.0085,0.0415,0.033,-0.0245,-0.012,0.037,0.156,0.22,0.2785,0.219,0.161,0.113,0.035,0.094,-0.268
0.005,0.0405,0.0355,-0.0225,-0.015,0.038,0.162,0.22,0.2765,0.2125,0.153,0.1075,0.0265,0.095,-0.2715
-0.0005,0.038,0.038,-0.0185,-0.019,0.038,0.1625,0.223,0.2765,0.211,0.1525,0.106,0.022,0.0955,-0.274
-0.006,0.039,0.0455,-0.0165,-0.0255,0.0425,0.1645,0.224,0.276,0.209,0.151,0.107,0.021,0.1025,-0.277
-0.0005,0.043,0.0435,-0.021,-0.022,0.0435,0.166,0.2295,0.2805,0.2115,0.1535,0.1105,0.024,0.1045,-0.2775
0.008,0.0465,0.0385,-0.027,-0.015,0.0425,0.1645,0.233,0.282,0.213,0.157,0.112,0.027,0.105,-0.2785
0.0025,0.0425,0.04,-0.022,-0.0185,0.041,0.164,0.232,0.284,0.2145,0.159,0.1155,0.0295,0.1025,-0.2795
0.0185,0.0465,0.028,-0.032,-0.0045,0.037,0.1675,0.2395,0.2865,0.2165,0.161,0.1195,0.036,0.11,-0.278
0.0135,0.036,0.0225,-0.0245,-0.004,0.029,0.164,0.2325,0.2825,0.2135,0.1605,0.119,0.041,0.1025,-0.2795
-0.009,0.018,0.027,-0.0045,-0.0175,0.0225,0.1705,0.235,0.2865,0.216,0.164,0.1215,0.0405,0.0855,-0.283
-0.0035,0.0155,0.019,-0.0055,-0.011,0.017,0.1735,0.24,0.2895,0.217,0.163,0.121,0.041,0.1045,-0.285
0.0095,0.0185,0.009,-0.0135,0.0005,0.014,0.172,0.238,0.287,0.213,0.16,0.121,0.0415,0.114,-0.2835
0.007,0.0175,0.011,-0.012,-0.0015,0.014,0.177,0.2395,0.2885,0.2145,0.161,0.1215,0.038,0.08,-0.28
-0.014,0.0045,0.018,0.005,-0.0155,0.0115,0.183,0.2385,0.292,0.219,0.163,0.1245,0.036,0.069,-0.2815
-0.0125,0.003,0.016,0.005,-0.014,0.0095,0.1845,0.243,0.2935,0.2185,0.1615,0.1225,0.0315,0.074,-0.285
-0.0035,0.0145,0.018,-0.005,-0.0105,0.016,0.1805,0.243,0.291,0.2145,0.1585,0.118,0.029,0.081,-0.2845
-0.0085,0.017,0.0255,-0.004,-0.0165,0.021,0.1875,0.239,0.286,0.21,0.1535,0.1125,0.024,0.089,-0.2875
-0.011,0.0175,0.028,-0.003,-0.0195,0.023,0.179,0.234,0.281,0.2055,0.147,0.1075,0.023,0.089,-0.287
-0.008,0.0285,0.0365,-0.01,-0.022,0.0325,0.1805,0.237,0.2845,0.2085,0.1485,0.113,0.024,0.0975,-0.286
-0.004,0.0355,0.0395,-0.0155,-0.0215,0.0375,0.185,0.238,0.2845,0.2055,0.145,0.105,0.014,0.093,-0.291
-0.016,0.028,0.0445,-0.006,-0.03,0.036,0.1815,0.2245,0.2765,0.1985,0.1375,0.095,0.0075,0.102,-0.2925
-0.022,0.0315,0.054,-0.0045,-0.0375,0.0425,0.183,0.2245,0.2745,0.194,0.133,0.0915,0.0005,0.1065,-0.292
-0.0155,0.038,0.0535,-0.011,-0.034,0.0455,0.177,0.231,0.2755,0.1915,0.1315,0.089,0.0025,0.11,-0.2925
-0.022,0.0385,0.0605,-0.008,-0.0405,0.0495,0.182,0.2285,0.276,0.192,0.132,0.087,0.003,0.12,-0.2965
-0.0105,0.05,0.0605,-0.0195,-0.035,0.055,0.186,0.233,0.2765,0.1925,0.13,0.0855,-0.001,0.115,-0.299
-0.0095,0.053,0.062,-0.0215,-0.0355,0.0575,0.18,0.2285,0.275,0.19,0.13,0.085,-0.0035,0.116,-0.299
-0.0275,0.0425,0.07,-0.007,-0.0485,0.056,0.1815,0.224,0.2735,0.186,0.1265,0.0795,-0.0075,0.1145,-0.3
-0.028,0.0405,0.0685,-0.0065,-0.048,0.0545,0.185,0.23,0.274,0.1875,0.1285,0.083,-0.003,0.1105,-0.299
-0.011,0.049,0.06,-0.0185,-0.035,0.0545,0.179,0.2305,0.2725,0.189,0.1315,0.0875,0.0015,0.105,-0.297
-0.014,0.046,0.0595,-0.0155,-0.0365,0.0525,0.18,0.2265,0.27,0.187,0.1285,0.0875,0.002,0.108,-0.297
-0.0215,0.042,0.0635,-0.01,-0.0425,0.053,0.178,0.2195,0.268,0.1835,0.126,0.083,-0.0015,0.109,-0.2975
-0.0075,0.0485,0.056,-0.02,-0.0315,0.0525,0.1765,0.221,0.2645,0.1805,0.1235,0.082,-0.0025,0.101,-0.2975
-0.0205,0.038,0.0585,-0.0085,-0.039,0.0485,0.1785,0.219,0.2605,0.1745,0.117,0.079,-0.0065,0.1,-0.296
-0.0315,0.0235,0.0545,0.0045,-0.043,0.039,0.1815,0.213,0.259,0.1735,0.115,0.076,-0.01,0.102,-0.294
-0.0285,0.023,0.052,0.003,-0.04,0.0375,0.188,0.22,0.258,0.1735,0.115,0.0775,-0.0095,0.1035,-0.294
-0.029,0.0205,0.05,0.0045,-0.0395,0.0355,0.184,0.22,0.2565,0.1725,0.116,0.078,-0.0095,0.1075,-0.2925
-0.0265,0.018,0.0445,0.0045,-0.0355,0.0315,0.191,0.218,0.258,0.175,0.119,0.081,-0.0095,0.1035,-0.2905
-0.0235,0.022,0.0455,0.001,-0.0345,0.0335,0.187,0.22,0.255,0.1725,0.1165,0.08,-0.0125,0.0875,-0.2885
-0.0215,0.023,0.0445,-0.0005,-0.0325,0.034,0.1745,0.213,0.25,0.17,0.115,0.0825,-0.0135,0.0855,-0.2885
-0.023,0.0275,0.0505,-0.002,-0.0365,0.039,0.1795,0.209,0.2475,0.169,0.115,0.0835,-0.0135,0.1025,-0.2865
-0.021,0.033,0.054,-0.0055,-0.037,0.0435,0.1775,0.2085,0.245,0.167,0.1135,0.082,-0.013,0.112,-0.285
-0.0325,0.026,0.0585,0.0035,-0.045,0.0425,0.174,0.203,0.237,0.157,0.1045,0.0765,-0.019,0.121,-0.2855
-0.035,0.0255,0.06,0.005,-0.0475,0.0425,0.1735,0.1985,0.232,0.154,0.1005,0.0745,-0.019,0.1175,-0.286
-0.033,0.0255,0.059,0.004,-0.0455,0.0425,0.169,0.191,0.226,0.1475,0.095,0.07,-0.0215,0.113,-0.281
-0.0275,0.0325,0.0605,-0.002,-0.044,0.0465,0.1675,0.1845,0.219,0.1395,0.0875,0.063,-0.0275,0.1095,-0.2775
-0.024,0.0375,0.0615,-0.0065,-0.0425,0.0495,0.1665,0.1825,0.217,0.1385,0.0885,0.063,-0.027,0.1065,-0.276
-0.027,0.0235,0.051,0.002,-0.039,0.037,0.169,0.1825,0.2145,0.14,0.0925,0.0665,-0.025,0.1115,-0.273
-0.0295,0.019,0.0485,0.0055,-0.0385,0.0335,0.171,0.1795,0.2145,0.1425,0.096,0.07,-0.0225,0.0925,-0.273
-0.036,0.025,0.061,0.0055,-0.048,0.043,0.162,0.169,0.2055,0.136,0.089,0.062,-0.023,0.0905,-0.2705
-0.03,0.035,0.0645,-0.0025,-0.047,0.05,0.158,0.165,0.202,0.1345,0.089,0.063,-0.0195,0.101,-0.269
-0.0305,0.038,0.0685,-0.0035,-0.0495,0.0535,0.1595,0.163,0.202,0.136,0.0895,0.0655,-0.019,0.1185,-0.271
-0.033,0.0405,0.073,-0.0035,-0.0525,0.0565,0.1585,0.1615,0.204,0.141,0.093,0.0695,-0.0185,0.1265,-0.273
-0.043,0.035,0.0785,0.0045,-0.0605,0.0565,0.161,0.1595,0.202,0.1395,0.095,0.072,-0.022,0.1185,-0.2715
-0.048,0.023,0.0715,0.013,-0.0595,0.047,0.1575,0.1525,0.1905,0.1305,0.0865,0.0625,-0.031,0.1165,-0.267
-0.0385,0.023,0.0615,0.008,-0.0495,0.0425,0.1575,0.151,0.1875,0.13,0.0875,0.065,-0.027,0.102,-0.263
-0.022,0.0265,0.0485,-0.002,-0.035,0.0375,0.1505,0.146,0.1855,0.1305,0.0895,0.0685,-0.018,0.1035,-0.262
-0.0195,0.0255,0.045,-0.003,-0.032,0.0355,0.1475,0.138,0.1845,0.13,0.09,0.07,-0.0145,0.114,-0.261
-0.031,0.026,0.0575,0.003,-0.044,0.0415,0.1445,0.131,0.1785,0.1275,0.087,0.069,-0.02,0.108,-0.2575
-0.018,0.0345,0.0525,-0.008,-0.035,0.0435,0.1385,0.128,0.1715,0.1225,0.083,0.067,-0.025,0.1015,-0.256
-0.032,0.031,0.0635,0.0005,-0.0475,0.0475,0.1415,0.1235,0.166,0.115,0.0765,0.0635,-0.031,0.12,-0.2545
-0.0515,0.025,0.077,0.0135,-0.064,0.051,0.137,0.1145,0.1565,0.109,0.0705,0.0575,-0.0375,0.1275,-0.2535
-0.0345,0.034,0.0685,0.0005,-0.051,0.0515,0.139,0.1135,0.1555,0.1085,0.0735,0.063,-0.037,0.118,-0.2505
-0.025,0.035,0.0605,-0.005,-0.0425,0.0475,0.1275,0.1065,0.147,0.102,0.0685,0.0615,-0.0345,0.1025,-0.2415
-0.0235,0.032,0.056,-0.004,-0.0395,0.044,0.121,0.101,0.1385,0.098,0.0685,0.0625,-0.031,0.0895,-0.236
-0.028,0.0265,0.055,0.001,-0.0415,0.041,0.1255,0.092,0.1315,0.0945,0.0665,0.0605,-0.035,0.1025,-0.234
-0.029,0.017,0.046,0.0065,-0.037,0.0315,0.1155,0.082,0.1235,0.0915,0.0655,0.06,-0.032,0.105,-0.2285
-0.0135,0.021,0.0345,-0.0035,-0.024,0.028,0.1155,0.0865,0.127,0.0975,0.0745,0.071,-0.022,0.101,-0.2265
0.0005,0.034,0.0335,-0.017,-0.016,0.0335,0.1095,0.083,0.1255,0.1,0.077,0.0755,-0.0165,0.1045,-0.225
0.0005,0.0415,0.0405,-0.021,-0.02,0.041,0.1055,0.077,0.117,0.0945,0.0715,0.0735,-0.0175,0.1145,-0.222
-0.009,0.037,0.046,-0.014,-0.027,0.0415,0.107,0.069,0.107,0.0855,0.063,0.067,-0.0245,0.1315,-0.2195
-0.0125,0.0375,0.05,-0.0125,-0.031,0.0435,0.096,0.057,0.0995,0.081,0.0615,0.065,-0.024,0.129,-0.2135
-0.008,0.0385,0.0465,-0.0145,-0.027,0.0425,0.092,0.054,0.095,0.076,0.058,0.0625,-0.024,0.122,-0.2085
0.0055,0.04,0.0345,-0.0225,-0.014,0.037,0.0935,0.0565,0.0975,0.0795,0.0625,0.068,-0.0205,0.121,-0.2045
0.008,0.0385,0.031,-0.023,-0.011,0.035,0.088,0.0515,0.096,0.0845,0.0675,0.0745,-0.0145,0.1265,-0.2
-0.011,0.029,0.04,-0.009,-0.0255,0.035,0.084,0.0415,0.085,0.0765,0.0605,0.0705,-0.019,0.1225,-0.1975
-0.001,0.032,0.0335,-0.0155,-0.017,0.0325,0.076,0.0335,0.076,0.0695,0.0575,0.0695,-0.017,0.0975,-0.1955
0.0185,0.039,0.0205,-0.0285,-0.001,0.03,0.0705,0.027,0.0715,0.069,0.0575,0.0705,-0.0125,0.097,-0.1925
0.007,0.0345,0.0275,-0.0205,-0.01,0.031,0.075,0.023,0.07,0.068,0.057,0.072,-0.013,0.1085,-0.1875
-0.006,0.0235,0.03,-0.0085,-0.0175,0.027,0.0745,0.017,0.065,0.0665,0.0565,0.0705,-0.0145,0.1,-0.182
0.003,0.029,0.026,-0.016,-0.0115,0.0275,0.069,0.017,0.066,0.0705,0.0615,0.0795,-0.007,0.1,-0.178
0.006,0.0285,0.022,-0.017,-0.008,0.0255,0.0665,0.0125,0.0605,0.0685,0.0635,0.0835,-0.003,0.1055,-0.1755
0.0035,0.025,0.0215,-0.014,-0.009,0.0235,0.071,0.0045,0.0535,0.064,0.06,0.077,-0.0115,0.093,-0.172
0.0155,0.0305,0.0155,-0.0225,0.0,0.023,0.065,-0.0035,0.046,0.059,0.059,0.0795,-0.008,0.095,-0.165
0.01,0.021,0.011,-0.015,-0.0005,0.016,0.054,-0.0155,0.033,0.046,0.049,0.0715,-0.0085,0.097,-0.158
0.0055,0.0205,0.0145,-0.0125,-0.0045,0.0175,0.051,-0.0245,0.0255,0.0395,0.0425,0.0655,-0.0125,0.1025,-0.154
-0.002,0.0195,0.021,-0.0085,-0.011,0.0205,0.052,-0.0295,0.0205,0.0365,0.0405,0.065,-0.0155,0.118,-0.155
0.0025,0.0215,0.0185,-0.0115,-0.008,0.02,0.053,-0.024,0.022,0.04,0.0455,0.069,-0.0125,0.1005,-0.1525
0.015,0.026,0.0115,-0.02,0.002,0.0185,0.044,-0.0315,0.0185,0.042,0.0465,0.073,-0.008,0.088,-0.1485
0.0105,0.021,0.0105,-0.0155,0.0005,0.0155,0.0415,-0.039,0.0135,0.0355,0.0415,0.067,-0.014,0.095,-0.147
0.004,0.015,0.011,-0.0095,-0.003,0.013,0.045,-0.0355,0.0125,0.036,0.0435,0.068,-0.0165,0.104,-0.147
0.0015,0.0145,0.013,-0.0075,-0.0055,0.0135,0.042,-0.041,0.011,0.038,0.0455,0.0735,-0.0155,0.101,-0.1435
0.011,0.02,0.009,-0.015,0.001,0.0145,0.043,-0.0405,0.009,0.041,0.048,0.0785,-0.011,0.0975,-0.1415
0.0,0.01,0.01,-0.005,-0.005,0.01,0.0495,-0.036,0.012,0.0425,0.05,0.0785,-0.012,0.1065,-0.1395
0.008,0.0045,-0.0035,-0.006,0.006,0.0005,0.0485,-0.038,0.0145,0.045,0.051,0.0755,-0.014,0.093,-0.1335
0.0205,0.006,-0.0145,-0.0125,0.0175,-0.0045,0.043,-0.042,0.0085,0.046,0.052,0.079,-0.011,0.09,-0.131
0.0205,0.0065,-0.0145,-0.013,0.0175,-0.004,0.037,-0.043,0.0085,0.0475,0.057,0.085,-0.005,0.102,-0.1275
0.028,0.012,-0.016,-0.02,0.0225,-0.002,0.0285,-0.045,0.009,0.0515,0.061,0.0875,0.002,0.0865,-0.1255
0.0315,0.015,-0.017,-0.023,0.0245,-0.001,0.0275,-0.05,0.0065,0.0495,0.057,0.0885,0.0055,0.0745,-0.1265
0.0385,0.02,-0.0185,-0.0285,0.0285,0.0005,0.027,-0.0505,0.004,0.0465,0.057,0.0895,0.008,0.0775,-0.125
0.03,0.018,-0.0125,-0.0235,0.0215,0.003,0.0295,-0.0515,0.0035,0.0475,0.059,0.091,0.0105,0.0785,-0.123
0.0275,0.0175,-0.0105,-0.022,0.019,0.0035,0.0325,-0.059,-0.0005,0.045,0.058,0.089,0.0085,0.0755,-0.119
0.03,0.023,-0.0075,-0.026,0.019,0.0075,0.0275,-0.06,-0.0055,0.0465,0.0605,0.0945,0.009,0.082,-0.117
0.034,0.022,-0.012,-0.028,0.0235,0.005,0.0285,-0.06,-0.0055,0.046,0.0605,0.097,0.012,0.086,-0.1145
0.0385,0.0245,-0.014,-0.031,0.0265,0.005,0.023,-0.065,-0.0095,0.0425,0.0595,0.095,0.011,0.0865,-0.111
0.0465,0.0305,-0.016,-0.0385,0.0315,0.0075,0.016,-0.064,-0.007,0.048,0.0665,0.102,0.017,0.0965,-0.113
0.051,0.0305,-0.0205,-0.0405,0.036,0.005,0.0245,-0.0625,-0.0065,0.049,0.0675,0.1035,0.0205,0.092,-0.1145
0.032,0.0165,-0.016,-0.024,0.024,0.0,0.0235,-0.0685,-0.0145,0.0425,0.061,0.097,0.018,0.087,-0.1105
0.028,0.007,-0.021,-0.017,0.025,-0.007,0.0175,-0.0745,-0.0165,0.0405,0.0605,0.098,0.0195,0.083,-0.106
0.035,0.0055,-0.0295,-0.02,0.0325,-0.012,0.016,-0.0705,-0.015,0.0425,0.063,0.1005,0.023,0.0735,-0.1025
0.0395,0.0025,-0.037,-0.0205,0.0385,-0.0175,0.02,-0.0645,-0.013,0.0435,0.0635,0.1,0.02,0.0735,-0.1015
0.0425,0.004,-0.038,-0.023,0.0405,-0.017,0.0215,-0.0675,-0.015,0.0425,0.061,0.1015,0.018,0.074,-0.103
0.033,-0.0015,-0.034,-0.0155,0.034,-0.018,0.0165,-0.073,-0.0195,0.039,0.0575,0.0985,0.019,0.0745,-0.099
0.0295,-0.0055,-0.035,-0.012,0.0325,-0.0205,0.022,-0.069,-0.0175,0.041,0.0615,0.102,0.0185,0.076,-0.0975
0.038,-0.002,-0.04,-0.018,0.039,-0.021,0.024,-0.068,-0.016,0.043,0.0655,0.105,0.019,0.078,-0.094
0.049,0.002,-0.047,-0.0255,0.0485,-0.0225,0.016,-0.069,-0.017,0.042,0.0635,0.104,0.023,0.0795,-0.091
0.045,0.003,-0.0425,-0.0235,0.044,-0.0195,0.014,-0.0715,-0.019,0.0425,0.063,0.103,0.024,0.0735,-0.0965
0.036,0.0035,-0.032,-0.0195,0.034,-0.0145,0.0165,-0.074,-0.019,0.0425,0.0625,0.0995,0.02,0.0765,-0.099
0.0345,0.009,-0.026,-0.0215,0.0305,-0.0085,0.0175,-0.07,-0.0165,0.046,0.063,0.101,0.02,0.1,-0.102
0.03,0.0115,-0.0185,-0.0205,0.0245,-0.0035,0.0155,-0.077,-0.0205,0.042,0.0595,0.097,0.0155,0.103,-0.1005
0.0295,0.0115,-0.018,-0.02,0.024,-0.003,0.013,-0.0795,-0.022,0.0385,0.0545,0.0935,0.0115,0.0875,-0.1
0.0375,0.0125,-0.025,-0.0245,0.0315,-0.0065,0.016,-0.072,-0.016,0.0455,0.0595,0.1005,0.0175,0.084,-0.1015
0.0425,0.0155,-0.0275,-0.029,0.0355,-0.006,0.013,-0.0715,-0.015,0.047,0.0615,0.103,0.024,0.0885,-0.1005
0.047,0.0165,-0.0305,-0.0315,0.039,-0.007,0.0035,-0.0725,-0.0175,0.0445,0.0595,0.1025,0.027,0.081,-0.097
0.0455,0.0155,-0.03,-0.03,0.038,-0.0075,0.0115,-0.0765,-0.0205,0.0425,0.0575,0.102,0.024,0.081,-0.095
0.0345,0.0105,-0.024,-0.022,0.0295,-0.007,0.015,-0.078,-0.0215,0.041,0.0565,0.1005,0.019,0.079,-0.0935
0.035,0.0015,-0.033,-0.018,0.0345,-0.016,0.01,-0.074,-0.022,0.0405,0.0575,0.1015,0.0195,0.069,-0.0915
0.0415,-0.0045,-0.046,-0.0185,0.044,-0.025,0.016,-0.073,-0.0155,0.046,0.062,0.106,0.0265,0.0775,-0.0945
0.044,-0.007,-0.0515,-0.0185,0.048,-0.029,0.0185,-0.0725,-0.0095,0.0525,0.0685,0.113,0.0325,0.069,-0.0925
0.0445,-0.0135,-0.058,-0.0155,0.0515,-0.0355,0.021,-0.0665,-0.013,0.048,0.0655,0.1085,0.0315,0.0625,-0.088
0.0465,-0.0195,-0.0665,-0.0135,0.0565,-0.043,0.02,-0.063,-0.0125,0.0475,0.066,0.1095,0.0315,0.062,-0.0885
0.0545,-0.014,-0.0685,-0.02,0.0615,-0.041,0.0185,-0.0645,-0.013,0.0485,0.066,0.1085,0.03,0.0605,-0.091
0.052,-0.016,-0.068,-0.0175,0.0605,-0.0425,0.02,-0.0645,-0.0125,0.0495,0.069,0.1095,0.0255,0.0685,-0.093
0.039,-0.0275,-0.0665,-0.0055,0.053,-0.047,0.021,-0.0625,-0.0095,0.0545,0.0735,0.115,0.0255,0.0525,-0.089
0.0395,-0.0275,-0.067,-0.006,0.0535,-0.047,0.014,-0.065,-0.0125,0.053,0.072,0.1125,0.0275,0.047,-0.087
0.0455,-0.02,-0.066,-0.0125,0.056,-0.043,0.0095,-0.066,-0.014,0.0525,0.071,0.111,0.0285,0.067,-0.0895
0.037,-0.0145,-0.052,-0.011,0.045,-0.0335,0.0145,-0.0665,-0.017,0.0485,0.065,0.103,0.022,0.0665,-0.0885
0.0435,-0.009,-0.0525,-0.017,0.048,-0.0305,0.009,-0.071,-0.0215,0.0425,0.0605,0.098,0.014,0.0585,-0.092
0.0445,-0.0095,-0.054,-0.0175,0.0495,-0.0315,0.011,-0.07,-0.02,0.044,0.059,0.0955,0.0105,0.0595,-0.0915
0.0315,-0.012,-0.0435,-0.0095,0.038,-0.028,0.015,-0.0695,-0.018,0.0425,0.0565,0.091,0.0065,0.054,-0.089
0.0335,-0.0065,-0.0395,-0.0135,0.037,-0.023,0.0145,-0.0655,-0.013,0.044,0.06,0.0935,0.01,0.0635,-0.088
0.027,-0.0105,-0.0375,-0.008,0.0325,-0.024,0.023,-0.0605,-0.013,0.044,0.0605,0.092,0.01,0.0835,-0.088
0.033,-0.0095,-0.0425,-0.0115,0.038,-0.026,0.018,-0.064,-0.0175,0.04,0.0585,0.092,0.014,0.075,-0.089
0.0415,-0.0025,-0.044,-0.0195,0.0435,-0.0235,0.015,-0.064,-0.014,0.0435,0.063,0.099,0.0235,0.069,-0.0885
0.0275,-0.009,-0.0365,-0.009,0.0325,-0.023,0.017,-0.064,-0.014,0.0425,0.0615,0.099,0.0225,0.068,-0.0905
0.0345,-0.0085,-0.043,-0.0125,0.039,-0.026,0.017,-0.0605,-0.009,0.0495,0.068,0.108,0.028,0.075,-0.0945
0.054,-0.0025,-0.0565,-0.0255,0.0555,-0.0295,0.0195,-0.061,-0.008,0.0505,0.0695,0.1105,0.0295,0.073,-0.095
0.0455,-0.0165,-0.0625,-0.0145,0.0545,-0.0395,0.0215,-0.0605,-0.0095,0.047,0.0665,0.1075,0.0265,0.054,-0.0945
0.0425,-0.03,-0.073,-0.006,0.058,-0.0515,0.0235,-0.0545,-0.0105,0.05,0.069,0.111,0.0305,0.0535,-0.0945
0.0415,-0.028,-0.069,-0.0065,0.0555,-0.0485,0.0245,-0.0575,-0.008,0.051,0.0705,0.113,0.029,0.058,-0.0955
0.042,-0.0215,-0.0635,-0.01,0.053,-0.0425,0.0255,-0.0585,-0.0015,0.058,0.0775,0.122,0.0335,0.0625,-0.0945
0.0535,-0.0175,-0.071,-0.018,0.0625,-0.044,0.0165,-0.0615,-0.005,0.0565,0.077,0.1205,0.0375,0.065,-0.0925
0.0455,-0.0255,-0.071,-0.01,0.0585,-0.0485,0.0145,-0.0615,-0.006,0.054,0.074,0.117,0.0345,0.0665,-0.094
0.04,-0.031,-0.071,-0.004,0.0555,-0.051,0.02,-0.0615,-0.0075,0.051,0.072,0.1135,0.031,0.0605,-0.0935
0.04,-0.023,-0.063,-0.008,0.0515,-0.0425,0.0165,-0.0595,-0.005,0.0555,0.076,0.1145,0.0315,0.061,-0.0935
0.033,-0.013,-0.046,-0.01,0.04,-0.0295,0.016,-0.057,-0.001,0.062,0.0805,0.1195,0.0335,0.064,-0.0955
0.03,-0.0125,-0.0425,-0.0085,0.0365,-0.0275,0.015,-0.0615,-0.0075,0.0545,0.073,0.1115,0.0285,0.0705,-0.095
0.028,-0.0095,-0.038,-0.009,0.033,-0.024,0.012,-0.0585,-0.008,0.0515,0.067,0.1045,0.0235,0.0855,-0.097
0.038,0.0015,-0.0365,-0.0195,0.0375,-0.0175,0.0185,-0.0545,-0.003,0.0495,0.0635,0.1015,0.019,0.075,-0.1005
0.0345,-0.0045,-0.039,-0.015,0.037,-0.0215,0.022,-0.0595,-0.0095,0.042,0.0585,0.098,0.0135,0.0665,-0.098
0.023,-0.0085,-0.0315,-0.007,0.0275,-0.02,0.025,-0.054,-0.01,0.041,0.057,0.097,0.0095,0.076,-0.098
0.033,-0.0075,-0.04,-0.0125,0.0365,-0.0235,0.0305,-0.051,-0.007,0.041,0.058,0.098,0.009,0.0715,-0.096
0.031,-0.014,-0.0455,-0.008,0.0385,-0.03,0.0275,-0.0575,-0.0085,0.042,0.06,0.096,0.0135,0.059,-0.0955
0.0275,-0.013,-0.04,-0.007,0.034,-0.0265,0.028,-0.0505,-0.003,0.047,0.0635,0.0965,0.0195,0.052,-0.0985
0.04,-0.0095,-0.049,-0.015,0.0445,-0.029,0.0315,-0.048,0.0025,0.053,0.07,0.102,0.026,0.054,-0.1015
0.034,-0.017,-0.051,-0.008,0.0425,-0.034,0.033,-0.044,0.0045,0.056,0.0745,0.108,0.03,0.0485,-0.101
0.0235,-0.0285,-0.052,0.0025,0.038,-0.04,0.0305,-0.0505,0.0005,0.055,0.074,0.111,0.0315,0.043,-0.0975
0.0335,-0.0295,-0.063,-0.002,0.0485,-0.046,0.0275,-0.0505,0.0015,0.056,0.074,0.112,0.0325,0.06,-0.1
0.035,-0.03,-0.065,-0.0025,0.05,-0.047,0.033,-0.0385,0.009,0.061,0.0795,0.1165,0.033,0.057,-0.1005
0.0245,-0.0385,-0.063,0.0075,0.044,-0.0505,0.036,-0.0435,0.0065,0.059,0.079,0.118,0.0325,0.046,-0.1
0.0125,-0.0425,-0.055,0.015,0.034,-0.049,0.0335,-0.0495,0.0005,0.0525,0.072,0.1135,0.0275,0.0705,-0.101
0.0215,-0.032,-0.054,0.0055,0.038,-0.043,0.0345,-0.053,-0.0015,0.0545,0.0715,0.113,0.0295,0.0785,-0.1005
0.042,-0.019,-0.0615,-0.0115,0.052,-0.04,0.035,-0.049,0.0015,0.058,0.0775,0.1175,0.034,0.0625,-0.101
0.0365,-0.0225,-0.059,-0.007,0.048,-0.0405,0.03,-0.046,0.004,0.059,0.0795,0.1185,0.034,0.0565,-0.098
0.0385,-0.023,-0.0615,-0.0075,0.05,-0.042,0.0265,-0.0505,0.001,0.0595,0.081,0.119,0.0335,0.0565,-0.0985
0.05,-0.0085,-0.0585,-0.0205,0.0545,-0.0335,0.028,-0.0455,0.004,0.0615,0.0855,0.119,0.028,0.069,-0.1025
0.0475,-0.004,-0.0515,-0.0215,0.05,-0.028,0.0275,-0.0415,0.008,0.062,0.0835,0.115,0.027,0.0675,-0.1045
0.048,-0.0035,-0.052,-0.022,0.05,-0.0275,0.0255,-0.0455,0.0015,0.0565,0.0775,0.1115,0.0265,0.057,-0.099
0.035,-0.007,-0.0415,-0.014,0.0385,-0.0245,0.026,-0.048,-0.005,0.051,0.07,0.103,0.02,0.072,-0.098
0.032,-0.007,-0.039,-0.012,0.0355,-0.023,0.029,-0.0475,-0.005,0.0485,0.068,0.101,0.0195,0.081,-0.0995
0.0305,-0.0065,-0.0375,-0.012,0.034,-0.022,0.03,-0.047,-0.0015,0.052,0.0715,0.1025,0.023,0.0685,-0.0975
0.0265,-0.0085,-0.035,-0.0085,0.031,-0.0215,0.0305,-0.0435,0.0015,0.056,0.075,0.1075,0.03,0.0655,-0.0995
0.0375,-0.003,-0.041,-0.017,0.0395,-0.022,0.0295,-0.043,0.0025,0.055,0.073,0.109,0.031,0.0765,-0.0975
0.04,-0.0055,-0.0455,-0.0175,0.0435,-0.0255,0.027,-0.046,0.0005,0.0535,0.0705,0.1075,0.03,0.076,-0.0955
0.036,-0.0115,-0.0475,-0.012,0.0415,-0.0295,0.034,-0.0525,-0.006,0.048,0.067,0.105,0.0275,0.063,-0.0955
0.0315,-0.0125,-0.044,-0.0095,0.038,-0.0285,0.0355,-0.051,-0.0025,0.0505,0.0675,0.106,0.024,0.064,-0.1
0.0375,-0.0145,-0.052,-0.011,0.045,-0.0335,0.0325,-0.043,0.003,0.057,0.072,0.112,0.0265,0.059,-0.098
0.0325,-0.0205,-0.053,-0.0055,0.043,-0.037,0.039,-0.0425,-0.001,0.054,0.069,0.1075,0.0235,0.065,-0.0975
0.022,-0.0275,-0.0495,0.003,0.036,-0.0385,0.0415,-0.0405,0.0045,0.0595,0.073,0.11,0.0285,0.0755,-0.1
0.0185,-0.035,-0.0535,0.0085,0.0365,-0.0445,0.0465,-0.038,0.0095,0.065,0.076,0.109,0.0285,0.063,-0.1005
0.0215,-0.035,-0.056,0.007,0.039,-0.0455,0.0475,-0.0375,0.006,0.0585,0.0685,0.1,0.022,0.052,-0.1
0.0285,-0.032,-0.0605,0.002,0.045,-0.046,0.0415,-0.04,0.0035,0.0525,0.0635,0.096,0.022,0.0545,-0.097
0.0295,-0.032,-0.0615,0.001,0.046,-0.0465,0.0405,-0.043,0.001,0.0515,0.0595,0.095,0.0205,0.0535,-0.097
0.0325,-0.034,-0.0665,0.001,0.05,-0.05,0.0425,-0.037,0.0025,0.0515,0.061,0.0975,0.0195,0.0425,-0.095
0.0345,-0.0335,-0.068,0.0,0.0515,-0.0505,0.0485,-0.035,0.005,0.0545,0.064,0.0985,0.021,0.05,-0.0955
0.04,-0.0255,-0.065,-0.007,0.053,-0.0455,0.0425,-0.038,0.004,0.053,0.0635,0.1015,0.025,0.0525,-0.095
0.038,-0.025,-0.063,-0.006,0.0505,-0.044,0.0375,-0.043,0.0,0.0505,0.0645,0.101,0.0265,0.0505,-0.0935
0.03,-0.0315,-0.0615,0.001,0.046,-0.0465,0.0415,-0.0455,-0.0015,0.0475,0.061,0.0965,0.0235,0.0515,-0.094
0.0245,-0.0315,-0.0565,0.0035,0.041,-0.044,0.0415,-0.039,0.004,0.051,0.0635,0.0975,0.0225,0.05,-0.1
0.028,-0.0235,-0.0515,-0.002,0.04,-0.0375,0.035,-0.042,0.0035,0.057,0.069,0.104,0.026,0.0605,-0.1035
0.0335,-0.0225,-0.056,-0.0055,0.045,-0.0395,0.0285,-0.0465,-0.001,0.0525,0.067,0.105,0.026,0.0585,-0.099
0.0235,-0.025,-0.0485,0.001,0.0365,-0.037,0.0335,-0.047,-0.006,0.048,0.061,0.0965,0.0195,0.065,-0.097
0.0145,-0.0225,-0.0375,0.0045,0.026,-0.03,0.031,-0.056,-0.0075,0.046,0.0595,0.0975,0.014,0.075,-0.098
0.027,-0.019,-0.0455,-0.0035,0.0365,-0.0325,0.03,-0.058,-0.005,0.049,0.064,0.1045,0.0165,0.0645,-0.1
0.0315,-0.021,-0.053,-0.005,0.0425,-0.037,0.035,-0.0525,-0.007,0.0505,0.0665,0.1065,0.0185,0.068,-0.1005
0.0205,-0.0285,-0.049,0.004,0.035,-0.0385,0.0315,-0.0505,-0.0045,0.0515,0.0685,0.108,0.0215,0.071,-0.098
0.02,-0.0345,-0.0545,0.0075,0.0375,-0.0445,0.039,-0.0455,-0.0065,0.0505,0.068,0.1095,0.0235,0.0515,-0.0945
0.0175,-0.041,-0.0585,0.012,0.038,-0.0495,0.043,-0.0525,-0.01,0.047,0.063,0.105,0.017,0.0405,-0.0945
0.0095,-0.0495,-0.0585,0.0205,0.034,-0.054,0.0375,-0.0555,-0.009,0.0465,0.062,0.101,0.0135,0.046,-0.0995
0.0235,-0.0445,-0.068,0.0105,0.046,-0.056,0.0375,-0.0465,-0.0035,0.053,0.069,0.109,0.019,0.042,-0.1025
0.027,-0.0395,-0.0665,0.0065,0.047,-0.053,0.031,-0.049,-0.0035,0.054,0.068,0.1075,0.0195,0.0485,-0.1015
0.026,-0.0435,-0.0695,0.009,0.0485,-0.0565,0.0285,-0.0505,-0.009,0.0465,0.0585,0.098,0.02,0.0465,-0.101
0.045,-0.032,-0.077,-0.0065,0.0615,-0.0545,0.036,-0.043,-0.003,0.048,0.0605,0.101,0.023,0.053,-0.1005
0.0275,-0.038,-0.065,0.0055,0.0465,-0.0515,0.041,-0.0495,-0.0075,0.045,0.059,0.1025,0.018,0.0645,-0.097
0.022,-0.0425,-0.0645,0.0105,0.0435,-0.0535,0.039,-0.0555,-0.012,0.0425,0.0555,0.1005,0.0175,0.052,-0.092
0.0345,-0.0335,-0.0675,-0.0005,0.0515,-0.0505,0.0345,-0.05,-0.0095,0.045,0.0575,0.101,0.018,0.0555,-0.093
0.038,-0.0245,-0.0625,-0.0065,0.0505,-0.0435,0.03,-0.0505,-0.007,0.0465,0.059,0.1045,0.02,0.043,-0.0935
0.034,-0.0175,-0.0515,-0.008,0.043,-0.0345,0.0305,-0.0595,-0.0095,0.0435,0.0585,0.1045,0.021,0.0405,-0.0935
0.023,-0.022,-0.045,0.0,0.034,-0.034,0.0265,-0.065,-0.016,0.042,0.0545,0.101,0.02,0.0585,-0.093
0.037,-0.015,-0.052,-0.0105,0.045,-0.0335,0.0215,-0.061,-0.0175,0.041,0.0535,0.098,0.0215,0.0585,-0.0935
0.023,-0.0185,-0.0415,-0.002,0.0325,-0.0305,0.0365,-0.062,-0.021,0.036,0.049,0.093,0.0135,0.0585,-0.095
0.011,-0.025,-0.036,0.0075,0.0235,-0.0305,0.042,-0.064,-0.021,0.038,0.0505,0.093,0.009,0.0585,-0.096
0.024,-0.017,-0.041,-0.003,0.0325,-0.029,0.0395,-0.0625,-0.015,0.0415,0.0535,0.092,0.0075,0.056,-0.0965
0.013,-0.0195,-0.033,0.0035,0.0235,-0.0265,0.036,-0.0585,-0.017,0.0375,0.0475,0.0845,0.004,0.056,-0.093
0.022,-0.0175,-0.04,-0.002,0.0315,-0.029,0.0375,-0.06,-0.018,0.037,0.048,0.086,0.007,0.063,-0.094
0.031,-0.018,-0.049,-0.006,0.0405,-0.0335,0.042,-0.055,-0.0115,0.041,0.0515,0.0905,0.0095,0.0575,-0.096
0.0175,-0.0285,-0.046,0.0055,0.032,-0.0375,0.0435,-0.049,-0.0135,0.0385,0.05,0.089,0.008,0.052,-0.0955
0.003,-0.0385,-0.0415,0.018,0.0225,-0.04,0.05,-0.057,-0.017,0.0385,0.0505,0.0925,0.0075,0.066,-0.0955
0.003,-0.044,-0.047,0.021,0.025,-0.0455,0.042,-0.059,-0.0155,0.04,0.0525,0.0955,0.0125,0.0635,-0.0945
0.023,-0.0325,-0.0555,0.005,0.0395,-0.044,0.0365,-0.0625,-0.0175,0.0395,0.0535,0.098,0.018,0.055,-0.091
0.0265,-0.028,-0.0545,0.0005,0.041,-0.041,0.0365,-0.067,-0.022,0.0375,0.0515,0.0965,0.0175,0.055,-0.0875
0.027,-0.03,-0.057,0.0015,0.042,-0.0435,0.035,-0.06,-0.019,0.0405,0.0515,0.0965,0.0195,0.0515,-0.0905
0.0305,-0.029,-0.0595,-0.0005,0.045,-0.044,0.0315,-0.057,-0.0165,0.0445,0.055,0.1015,0.022,0.05,-0.0875
0.0305,-0.036,-0.067,0.003,0.049,-0.0515,0.029,-0.059,-0.019,0.0415,0.054,0.099,0.0235,0.043,-0.084
0.033,-0.0385,-0.0715,0.003,0.0525,-0.055,0.026,-0.0605,-0.019,0.0425,0.055,0.101,0.0275,0.0405,-0.0825
0.0275,-0.039,-0.0665,0.006,0.0475,-0.0525,0.027,-0.0655,-0.0215,0.0415,0.054,0.1005,0.0265,0.0525,-0.0825
0.033,-0.034,-0.067,0.0005,0.0505,-0.0505,0.033,-0.068,-0.023,0.04,0.0525,0.0995,0.0205,0.049,-0.088
0.026,-0.0325,-0.0585,0.0035,0.0425,-0.0455,0.038,-0.069,-0.0255,0.0375,0.049,0.0985,0.0155,0.056,-0.087
0.021,-0.0365,-0.0575,0.0075,0.0395,-0.047,0.0375,-0.067,-0.027,0.0325,0.0455,0.0955,0.014,0.0625,-0.082
0.041,-0.03,-0.0705,-0.005,0.056,-0.0505,0.021,-0.064,-0.0255,0.034,0.0475,0.0995,0.021,0.059,-0.082
0.029,-0.0375,-0.0665,0.0045,0.048,-0.052,0.024,-0.0695,-0.027,0.033,0.048,0.0995,0.02,0.0655,-0.0815
0.0235,-0.037,-0.06,0.007,0.042,-0.0485,0.0365,-0.069,-0.025,0.0365,0.0515,0.102,0.017,0.064,-0.0815
0.034,-0.027,-0.061,-0.0035,0.0475,-0.0435,0.032,-0.0665,-0.0225,0.039,0.0545,0.105,0.0185,0.05,-0.083
0.0275,-0.0325,-0.06,0.003,0.044,-0.0465,0.0225,-0.076,-0.033,0.0295,0.0465,0.097,0.012,0.033,-0.081
0.018,-0.0335,-0.0515,0.008,0.035,-0.0425,0.026,-0.076,-0.034,0.0285,0.045,0.0965,0.011,0.051,-0.08
0.025,-0.021,-0.046,-0.0015,0.0355,-0.0335,0.0255,-0.0715,-0.027,0.036,0.0535,0.103,0.0175,0.066,-0.081
0.0285,-0.021,-0.0495,-0.0035,0.0395,-0.0355,0.0225,-0.07,-0.0255,0.039,0.057,0.1055,0.021,0.0565,-0.079
0.025,-0.028,-0.053,0.0015,0.0395,-0.0405,0.023,-0.07,-0.029,0.0325,0.0495,0.098,0.016,0.057,-0.078
0.0255,-0.028,-0.0535,0.0015,0.04,-0.0405,0.0225,-0.081,-0.0375,0.0245,0.0435,0.091,0.009,0.0575,-0.0785
0.028,-0.0275,-0.0555,0.0,0.042,-0.0415,0.0255,-0.0765,-0.0325,0.0295,0.0485,0.097,0.0125,0.0505,-0.0795
0.048,-0.013,-0.061,-0.017,0.055,-0.037,0.024,-0.068,-0.026,0.034,0.0515,0.098,0.016,0.046,-0.0835
0.0485,-0.009,-0.0575,-0.0195,0.053,-0.033,0.0305,-0.0665,-0.0285,0.0315,0.0485,0.0975,0.016,0.055,-0.084
0.0215,-0.0325,-0.0535,0.006,0.0375,-0.043,0.03,-0.07,-0.032,0.0285,0.045,0.095,0.0145,0.058,-0.0765
0.023,-0.0385,-0.0615,0.008,0.0425,-0.05,0.029,-0.0775,-0.0325,0.031,0.0475,0.096,0.0165,0.0495,-0.0795
0.0255,-0.041,-0.0665,0.008,0.0465,-0.054,0.0375,-0.0665,-0.0255,0.037,0.0535,0.101,0.0195,0.0495,-0.085
0.0075,-0.047,-0.0545,0.02,0.0315,-0.051,0.0375,-0.0665,-0.0255,0.0375,0.054,0.0995,0.015,0.061,-0.083
0.0225,-0.0305,-0.0525,0.0045,0.0375,-0.0415,0.03,-0.0775,-0.033,0.0365,0.052,0.1015,0.016,0.058,-0.078
0.044,-0.021,-0.065,-0.0115,0.055,-0.043,0.022,-0.071,-0.031,0.038,0.0545,0.104,0.0195,0.048,-0.0795
0.0425,-0.0175,-0.06,-0.012,0.0515,-0.039,0.0205,-0.0685,-0.0255,0.041,0.058,0.106,0.02,0.0525,-0.0805
0.0245,-0.0285,-0.053,0.002,0.039,-0.0405,0.022,-0.0725,-0.032,0.0345,0.0495,0.098,0.015,0.049,-0.076
0.019,-0.036,-0.0545,0.0085,0.037,-0.045,0.027,-0.075,-0.037,0.0285,0.0445,0.092,0.01,0.0565,-0.079
0.0295,-0.0225,-0.0525,-0.0035,0.0415,-0.0375,0.033,-0.0745,-0.035,0.0285,0.047,0.0965,0.009,0.072,-0.081
0.0295,-0.0235,-0.0535,-0.0025,0.042,-0.0385,0.0295,-0.076,-0.0355,0.028,0.047,0.0975,0.0085,0.0605,-0.0835
0.0315,-0.023,-0.054,-0.004,0.043,-0.0385,0.028,-0.077,-0.032,0.031,0.0515,0.1015,0.014,0.048,-0.084
0.043,-0.0135,-0.057,-0.0145,0.0505,-0.035,0.0275,-0.072,-0.03,0.0345,0.0555,0.1045,0.018,0.053,-0.0825
0.0455,-0.013,-0.059,-0.016,0.0525,-0.036,0.0285,-0.07,-0.029,0.04,0.0585,0.1075,0.0205,0.0575,-0.083
0.038,-0.0175,-0.0555,-0.01,0.047,-0.0365,0.0365,-0.0695,-0.0255,0.0425,0.059,0.1085,0.0195,0.0505,-0.0825
0.036,-0.019,-0.055,-0.008,0.0455,-0.037,0.034,-0.067,-0.0255,0.039,0.0575,0.104,0.0145,0.0595,-0.0835
0.031,-0.0215,-0.0525,-0.0045,0.042,-0.037,0.03,-0.0685,-0.0265,0.0375,0.056,0.101,0.0115,0.074,-0.083
0.04,-0.0185,-0.059,-0.0105,0.0495,-0.0385,0.031,-0.071,-0.0265,0.04,0.0565,0.101,0.0115,0.074,-0.086
0.0445,-0.008,-0.0525,-0.018,0.049,-0.0305,0.0375,-0.064,-0.0195,0.045,0.0605,0.1065,0.0085,0.074,-0.0935
0.0415,-0.005,-0.0465,-0.018,0.0445,-0.026,0.0415,-0.061,-0.017,0.045,0.062,0.1065,0.004,0.079,-0.096
0.0435,-0.014,-0.0575,-0.0145,0.0505,-0.0355,0.042,-0.064,-0.0205,0.043,0.06,0.103,0.0045,0.082,-0.096
0.035,-0.022,-0.057,-0.0065,0.0465,-0.0395,0.046,-0.063,-0.0185,0.0425,0.0605,0.1035,0.0035,0.0725,-0.097
0.0315,-0.021,-0.0525,-0.005,0.042,-0.037,0.046,-0.06,-0.0165,0.0465,0.064,0.1075,0.006,0.083,-0.0995
0.035,-0.008,-0.043,-0.013,0.039,-0.0255,0.0505,-0.06,-0.0125,0.0545,0.0705,0.1155,0.01,0.0915,-0.1045
0.0465,0.008,-0.0385,-0.027,0.0425,-0.0155,0.0425,-0.0565,-0.0105,0.0545,0.0725,0.1175,0.009,0.0845,-0.107
0.0475,0.015,-0.033,-0.031,0.041,-0.0095,0.0455,-0.0585,-0.014,0.053,0.0715,0.117,0.008,0.101,-0.108
0.039,0.02,-0.0195,-0.029,0.0295,0.0,0.0585,-0.0615,-0.0145,0.0525,0.072,0.117,0.007,0.114,-0.1135
0.0405,0.0315,-0.009,-0.036,0.025,0.0115,0.0625,-0.058,-0.0115,0.0555,0.0745,0.118,0.0035,0.128,-0.12
0.056,0.0525,-0.0035,-0.054,0.03,0.0245,0.06,-0.0615,-0.007,0.06,0.0785,0.123,0.0035,0.145,-0.1265
0.0575,0.0575,0.0005,-0.0575,0.029,0.029,0.0545,-0.06,-0.006,0.0585,0.0745,0.1205,0.005,0.1385,-0.1285
0.048,0.046,-0.0025,-0.047,0.0255,0.022,0.0545,-0.06,-0.009,0.0545,0.0725,0.117,0.0045,0.1275,-0.128
0.046,0.0465,0.0005,-0.046,0.023,0.0235,0.066,-0.057,-0.0085,0.053,0.0715,0.1155,-0.002,0.119,-0.1295
0.051,0.0575,0.0065,-0.054,0.0225,0.032,0.075,-0.053,-0.0045,0.056,0.0735,0.116,-0.0075,0.125,-0.1305
0.045,0.0595,0.014,-0.052,0.016,0.037,0.079,-0.0525,-0.0055,0.0575,0.0745,0.1155,-0.0105,0.1335,-0.134
0.0355,0.0525,0.0175,-0.0435,0.009,0.035,0.0855,-0.0515,-0.008,0.052,0.0675,0.108,-0.0155,0.1245,-0.1375
0.0305,0.0515,0.021,-0.0405,0.005,0.036,0.0895,-0.0505,0.002,0.0605,0.076,0.113,-0.007,0.1315,-0.14
0.0345,0.0545,0.02,-0.0445,0.0075,0.037,0.087,-0.0515,0.005,0.065,0.079,0.1175,0.0,0.1315,-0.1445
0.0505,0.0605,0.01,-0.0555,0.0205,0.035,0.074,-0.048,0.004,0.0635,0.0775,0.119,0.006,0.1125,-0.145
0.052,0.0665,0.0145,-0.059,0.019,0.041,0.075,-0.039,0.01,0.069,0.085,0.1255,0.0105,0.1185,-0.1465
0.0545,0.0685,0.014,-0.061,0.02,0.0415,0.071,-0.0445,0.009,0.069,0.086,0.127,0.0085,0.135,-0.1515
0.0525,0.0725,0.02,-0.0625,0.0165,0.0465,0.0665,-0.0455,0.011,0.0735,0.089,0.1295,0.006,0.135,-0.1575
0.051,0.076,0.025,-0.0635,0.0135,0.0505,0.061,-0.0445,0.016,0.079,0.0935,0.133,0.007,0.1335,-0.157
0.06,0.0805,0.0205,-0.0695,0.02,0.0505,0.047,-0.0455,0.018,0.0805,0.0955,0.1355,0.013,0.1395,-0.153
0.0705,0.0845,0.014,-0.077,0.0285,0.0495,0.039,-0.046,0.016,0.0795,0.0955,0.138,0.015,0.1445,-0.152
0.078,0.0805,0.0025,-0.079,0.038,0.0415,0.0295,-0.048,0.018,0.0835,0.1005,0.143,0.0215,0.1285,-0.147
0.0745,0.078,0.0035,-0.0755,0.0355,0.0405,0.0245,-0.0505,0.019,0.088,0.106,0.1475,0.0265,0.123,-0.144
0.077,0.082,0.0045,-0.079,0.0365,0.043,0.002,-0.066,0.0125,0.0845,0.103,0.1475,0.0265,0.1425,-0.1415
0.082,0.0815,-0.001,-0.0815,0.042,0.04,-0.03,-0.08,0.0055,0.0815,0.1005,0.148,0.0305,0.1335,-0.1325
0.0595,0.0565,-0.003,-0.0575,0.0315,0.027,-0.0365,-0.0915,-0.008,0.071,0.09,0.138,0.025,0.1275,-0.127
0.069,0.0535,-0.016,-0.061,0.043,0.0185,-0.0385,-0.087,-0.0075,0.071,0.09,0.1405,0.031,0.1255,-0.1225
0.0945,0.0685,-0.026,-0.081,0.0605,0.0215,-0.036,-0.076,0.003,0.0825,0.1015,0.152,0.0435,0.1205,-0.1175
0.074,0.0585,-0.0155,-0.066,0.045,0.0215,-0.0315,-0.078,-0.004,0.0775,0.0965,0.149,0.0415,0.109,-0.1105
0.0895,0.059,-0.0305,-0.074,0.0605,0.0145,-0.051,-0.0865,-0.014,0.0715,0.092,0.15,0.05,0.098,-0.0995
0.103,0.0575,-0.0455,-0.08,0.0745,0.0055,-0.0585,-0.0915,-0.0095,0.075,0.0965,0.153,0.0635,0.107,-0.0965
0.1055,0.0605,-0.045,-0.0825,0.0755,0.0075,-0.066,-0.0915,-0.008,0.075,0.0975,0.1535,0.065,0.089,-0.093
0.1035,0.0565,-0.047,-0.0795,0.0755,0.0045,-0.078,-0.107,-0.021,0.0665,0.09,0.149,0.06,0.0765,-0.083
0.0855,0.046,-0.04,-0.0655,0.063,0.003,-0.074,-0.1015,-0.021,0.066,0.09,0.1505,0.061,0.096,-0.0805
0.099,0.0615,-0.037,-0.08,0.0685,0.0125,-0.07,-0.0855,-0.0145,0.0685,0.092,0.1455,0.0565,0.1085,-0.085
0.105,0.0655,-0.039,-0.085,0.072,0.0135,-0.067,-0.099,-0.022,0.0595,0.082,0.134,0.046,0.11,-0.0805
0.0985,0.06,-0.0385,-0.079,0.0685,0.011,-0.0705,-0.106,-0.0285,0.055,0.076,0.1335,0.0455,0.1145,-0.0725
0.0705,0.049,-0.022,-0.0595,0.0465,0.0135,-0.071,-0.1115,-0.036,0.0505,0.071,0.129,0.0395,0.1255,-0.0665
0.0465,0.036,-0.0105,-0.041,0.029,0.0125,-0.0735,-0.122,-0.044,0.0455,0.0655,0.1255,0.032,0.1325,-0.0585
0.068,0.0445,-0.0235,-0.056,0.046,0.0105,-0.0745,-0.1205,-0.0405,0.0475,0.0695,0.1275,0.038,0.1315,-0.0605
0.082,0.048,-0.034,-0.0645,0.058,0.007,-0.079,-0.1205,-0.043,0.0445,0.0695,0.1255,0.04,0.1205,-0.0555
0.091,0.0505,-0.0405,-0.0705,0.066,0.005,-0.0855,-0.123,-0.0465,0.0385,0.065,0.121,0.034,0.1085,-0.047
0.0975,0.0555,-0.042,-0.076,0.07,0.007,-0.0815,-0.127,-0.0495,0.0345,0.06,0.1165,0.0315,0.119,-0.0415
0.084,0.0475,-0.0365,-0.0655,0.0605,0.0055,-0.0925,-0.131,-0.058,0.0305,0.0565,0.1165,0.033,0.119,-0.036
0.086,0.0455,-0.0405,-0.0655,0.0635,0.0025,-0.096,-0.1315,-0.0565,0.033,0.06,0.119,0.0345,0.1165,-0.034
0.089,0.0425,-0.0465,-0.0655,0.068,-0.002,-0.0815,-0.1285,-0.0565,0.032,0.059,0.1175,0.0325,0.1135,-0.0305
0.0915,0.036,-0.055,-0.0635,0.0735,-0.0095,-0.0775,-0.1225,-0.0585,0.028,0.0565,0.1165,0.0355,0.105,-0.0245
0.0785,0.0245,-0.054,-0.0515,0.0665,-0.015,-0.076,-0.1255,-0.062,0.025,0.0545,0.115,0.0385,0.1145,-0.0195
0.073,0.025,-0.048,-0.049,0.061,-0.0115,-0.07,-0.123,-0.0595,0.028,0.058,0.1205,0.0415,0.1125,-0.0205
0.0865,0.0275,-0.0595,-0.057,0.0735,-0.016,-0.07,-0.119,-0.055,0.0315,0.064,0.125,0.0455,0.095,-0.019
0.0895,0.014,-0.0755,-0.0515,0.083,-0.031,-0.071,-0.1215,-0.0555,0.0325,0.063,0.127,0.0525,0.096,-0.0175
0.0945,0.0045,-0.0895,-0.0495,0.092,-0.0425,-0.074,-0.117,-0.0565,0.0335,0.0625,0.1285,0.059,0.093,-0.0085
0.0995,-0.0045,-0.104,-0.047,0.102,-0.0545,-0.079,-0.1175,-0.058,0.0315,0.064,0.1305,0.065,0.0565,0.0005
0.1105,-0.008,-0.1185,-0.051,0.115,-0.0635,-0.08,-0.11,-0.0545,0.034,0.0655,0.133,0.0685,0.0615,-0.0015
0.099,-0.016,-0.115,-0.0415,0.107,-0.0655,-0.083,-0.1195,-0.062,0.029,0.061,0.1285,0.064,0.061,0.004
0.1055,-0.0125,-0.118,-0.046,0.112,-0.0655,-0.087,-0.1245,-0.0565,0.036,0.068,0.137,0.0735,0.0505,0.006
0.118,-0.011,-0.1285,-0.053,0.1235,-0.07,-0.0845,-0.1085,-0.045,0.0505,0.08,0.1495,0.0815,0.0645,0.004
0.1165,-0.0115,-0.128,-0.052,0.1225,-0.07,-0.0915,-0.1135,-0.0475,0.051,0.0815,0.1505,0.081,0.054,0.004
0.13,-0.0005,-0.13,-0.0645,0.1305,-0.065,-0.092,-0.1155,-0.046,0.054,0.0855,0.1545,0.082,0.056,0.0025
0.124,-0.007,-0.131,-0.0585,0.128,-0.069,-0.091,-0.116,-0.05,0.051,0.0845,0.1535,0.0805,0.051,0.004
0.111,-0.014,-0.125,-0.048,0.1185,-0.07,-0.095,-0.124,-0.0575,0.044,0.0785,0.148,0.0755,0.059,0.003
0.1065,-0.02,-0.1265,-0.043,0.117,-0.073,-0.084,-0.126,-0.0675,0.033,0.0695,0.1375,0.068,0.053,-0.001
0.1035,-0.021,-0.1245,-0.041,0.114,-0.0725,-0.0715,-0.1215,-0.0695,0.0285,0.0625,0.1295,0.0635,0.036,-0.0045
0.1,-0.014,-0.114,-0.0425,0.107,-0.064,-0.064,-0.1205,-0.065,0.0305,0.065,0.1295,0.0595,0.0405,-0.0115
0.1005,-0.013,-0.1135,-0.0435,0.1075,-0.0635,-0.062,-0.124,-0.0685,0.025,0.0635,0.127,0.0555,0.03,-0.0105
0.0955,-0.013,-0.1085,-0.0405,0.1025,-0.061,-0.0575,-0.1255,-0.075,0.019,0.0555,0.1225,0.0505,0.046,-0.006
0.088,-0.007,-0.095,-0.0405,0.092,-0.051,-0.0565,-0.123,-0.076,0.016,0.051,0.1155,0.044,0.059,-0.0105
0.097,-0.0015,-0.0985,-0.0475,0.0975,-0.05,-0.0555,-0.1215,-0.0745,0.0165,0.051,0.1145,0.045,0.058,-0.0135
0.1005,-0.002,-0.1025,-0.049,0.1015,-0.0525,-0.049,-0.1245,-0.075,0.0155,0.0505,0.116,0.044,0.077,-0.012
0.079,-0.005,-0.084,-0.0365,0.082,-0.0445,-0.0415,-0.125,-0.0735,0.016,0.05,0.116,0.039,0.0775,-0.013
0.066,-0.016,-0.082,-0.0245,0.074,-0.049,-0.03,-0.118,-0.069,0.022,0.0555,0.1215,0.04,0.0625,-0.018
0.073,-0.0215,-0.0945,-0.0255,0.084,-0.058,-0.031,-0.12,-0.068,0.023,0.057,0.124,0.041,0.059,-0.0165
0.0735,-0.028,-0.1015,-0.0225,0.088,-0.065,-0.0295,-0.123,-0.0685,0.0235,0.0575,0.124,0.042,0.0495,-0.016
0.0685,-0.0365,-0.105,-0.0155,0.087,-0.0705,-0.0165,-0.1085,-0.066,0.021,0.055,0.119,0.036,0.045,-0.0215
0.0715,-0.0295,-0.101,-0.0205,0.0865,-0.0655,-0.0145,-0.109,-0.0675,0.017,0.0505,0.114,0.0335,0.0455,-0.028
0.067,-0.031,-0.0985,-0.018,0.083,-0.0645,-0.0115,-0.111,-0.0595,0.025,0.0565,0.12,0.0375,0.0585,-0.039
0.0645,-0.0405,-0.105,-0.0115,0.085,-0.0725,-0.0035,-0.0945,-0.057,0.0285,0.059,0.1225,0.035,0.0515,-0.0455
0.0695,-0.043,-0.112,-0.013,0.091,-0.0775,0.0005,-0.0865,-0.053,0.0335,0.066,0.1275,0.0355,0.0285,-0.047
0.0655,-0.0505,-0.116,-0.0075,0.091,-0.0835,0.001,-0.096,-0.047,0.0375,0.069,0.1315,0.037,0.024,-0.044
0.0595,-0.057,-0.1165,-0.001,0.0885,-0.0865,0.0035,-0.098,-0.057,0.0275,0.0595,0.122,0.0275,0.0245,-0.037
0.045,-0.0645,-0.1095,0.0095,0.0775,-0.087,0.01,-0.097,-0.062,0.0235,0.055,0.1145,0.022,0.022,-0.033
0.0505,-0.0625,-0.113,0.0065,0.082,-0.088,0.0055,-0.094,-0.058,0.029,0.061,0.1205,0.031,0.0185,-0.0315
0.056,-0.047,-0.103,-0.004,0.08,-0.075,0.007,-0.095,-0.0545,0.0335,0.066,0.126,0.0345,0.0515,-0.0385
0.0495,-0.0285,-0.0785,-0.0105,0.0645,-0.0535,0.0045,-0.1025,-0.0565,0.0315,0.0615,0.123,0.0305,0.0635,-0.0415
0.053,-0.015,-0.0675,-0.0185,0.0605,-0.0415,-0.007,-0.1015,-0.059,0.028,0.0595,0.12,0.0275,0.0555,-0.0405
0.054,-0.008,-0.062,-0.0225,0.058,-0.035,-0.005,-0.0985,-0.0555,0.028,0.0595,0.118,0.0255,0.059,-0.046
0.0675,0.0065,-0.061,-0.037,0.0645,-0.0275,-0.003,-0.089,-0.0495,0.0285,0.0615,0.117,0.0265,0.058,-0.0495
0.0705,0.0135,-0.057,-0.042,0.064,-0.022,0.003,-0.089,-0.0465,0.033,0.065,0.1175,0.0305,0.074,-0.052
0.067,0.009,-0.0585,-0.038,0.063,-0.025,-0.0015,-0.0925,-0.0505,0.0305,0.0595,0.1135,0.034,0.072,-0.053
0.068,0.0015,-0.067,-0.0345,0.068,-0.033,-0.0025,-0.0935,-0.0555,0.022,0.0515,0.108,0.033,0.048,-0.05
0.0585,-0.009,-0.0675,-0.0245,0.063,-0.038,0.009,-0.093,-0.0545,0.024,0.0525,0.1075,0.032,0.0435,-0.048
0.0525,-0.0195,-0.072,-0.016,0.0625,-0.0455,0.0135,-0.0885,-0.052,0.0265,0.0535,0.1075,0.0295,0.041,-0.0505
0.0445,-0.0305,-0.075,-0.0065,0.06,-0.053,0.0245,-0.0835,-0.049,0.028,0.0565,0.1095,0.031,0.0455,-0.0505
0.0405,-0.045,-0.0855,0.0025,0.063,-0.065,0.0275,-0.0785,-0.0475,0.028,0.055,0.108,0.032,0.0385,-0.049
0.0485,-0.0545,-0.103,0.0035,0.076,-0.079,0.0335,-0.0755,-0.0445,0.029,0.054,0.1105,0.0325,0.02,-0.0515
0.044,-0.06,-0.104,0.008,0.0745,-0.082,0.0425,-0.0765,-0.0455,0.031,0.055,0.113,0.0315,0.024,-0.053
0.0475,-0.0675,-0.115,0.0105,0.0815,-0.091,0.0455,-0.072,-0.04,0.0365,0.0605,0.1195,0.031,0.018,-0.0555
0.0645,-0.07,-0.134,0.003,0.0995,-0.102,0.0395,-0.0685,-0.0375,0.0375,0.061,0.1215,0.03,0.0025,-0.0535
0.049,-0.0825,-0.1315,0.017,0.0905,-0.107,0.0395,-0.077,-0.046,0.032,0.0545,0.1155,0.0235,0.011,-0.0525
0.032,-0.089,-0.121,0.029,0.077,-0.105,0.044,-0.076,-0.0465,0.031,0.055,0.114,0.022,0.024,-0.0545
0.0425,-0.0745,-0.1165,0.016,0.08,-0.0955,0.039,-0.075,-0.0465,0.031,0.0545,0.1135,0.0205,0.0105,-0.054
0.0535,-0.0565,-0.11,0.002,0.082,-0.0835,0.0325,-0.083,-0.051,0.0335,0.058,0.1195,0.023,0.0155,-0.054
0.055,-0.044,-0.0985,-0.0055,0.077,-0.071,0.026,-0.085,-0.053,0.031,0.0585,0.1195,0.023,0.0195,-0.0555
0.0425,-0.04,-0.083,-0.001,0.063,-0.0615,0.026,-0.0895,-0.0555,0.026,0.054,0.1145,0.019,0.039,-0.057
0.0425,-0.0335,-0.076,-0.0045,0.0595,-0.0545,0.024,-0.0895,-0.054,0.028,0.055,0.1135,0.024,0.065,-0.0535
0.0475,-0.0275,-0.075,-0.01,0.0615,-0.0515,0.021,-0.0855,-0.048,0.0345,0.0605,0.115,0.026,0.054,-0.057
0.039,-0.0265,-0.0655,-0.006,0.0525,-0.046,0.021,-0.082,-0.0465,0.0335,0.0615,0.1155,0.025,0.0545,-0.061
0.036,-0.029,-0.065,-0.003,0.0505,-0.047,0.0255,-0.075,-0.0435,0.033,0.0595,0.113,0.023,0.0555,-0.064
0.0405,-0.028,-0.0685,-0.006,0.055,-0.048,0.03,-0.081,-0.047,0.0285,0.0555,0.1085,0.0165,0.0535,-0.067
0.0435,-0.022,-0.0655,-0.0105,0.0545,-0.0435,0.0285,-0.0905,-0.0525,0.0255,0.053,0.108,0.014,0.05,-0.063
0.0475,-0.0205,-0.068,-0.0135,0.058,-0.044,0.028,-0.0855,-0.0485,0.0305,0.0585,0.1095,0.0165,0.0405,-0.0615
0.044,-0.0275,-0.0715,-0.008,0.058,-0.0495,0.0345,-0.073,-0.0425,0.0345,0.0625,0.1145,0.0195,0.0475,-0.065
0.032,-0.0455,-0.0775,0.007,0.055,-0.0615,0.0385,-0.071,-0.0425,0.032,0.058,0.111,0.014,0.039,-0.0705
0.038,-0.0475,-0.0855,0.005,0.062,-0.0665,0.042,-0.0735,-0.044,0.0285,0.0555,0.106,0.009,0.0175,-0.069
0.0435,-0.036,-0.079,-0.0035,0.0615,-0.0575,0.05,-0.0695,-0.0385,0.0355,0.0605,0.113,0.013,0.024,-0.07
0.04,-0.038,-0.078,-0.0005,0.0595,-0.058,0.048,-0.0695,-0.042,0.031,0.0585,0.111,0.0145,0.033,-0.069
0.0385,-0.055,-0.094,0.0085,0.0665,-0.0745,0.049,-0.0685,-0.0445,0.0285,0.0555,0.11,0.014,0.033,-0.0645
0.0425,-0.066,-0.1085,0.012,0.076,-0.087,0.0525,-0.069,-0.041,0.0335,0.06,0.116,0.021,0.02,-0.062
0.036,-0.0745,-0.11,0.0195,0.073,-0.092,0.0525,-0.076,-0.045,0.03,0.059,0.1135,0.0235,0.011,-0.0585
0.0255,-0.08,-0.1055,0.0275,0.0655,-0.093,0.056,-0.0765,-0.0465,0.0285,0.058,0.1105,0.019,0.0115,-0.057
0.0425,-0.0725,-0.1145,0.015,0.079,-0.0935,0.052,-0.067,-0.0405,0.036,0.0655,0.119,0.027,0.0175,-0.056
0.046,-0.066,-0.112,0.01,0.0795,-0.089,0.0475,-0.076,-0.041,0.0395,0.067,0.1205,0.029,0.0115,-0.057
0.031,-0.0675,-0.0985,0.0185,0.065,-0.083,0.047,-0.0765,-0.044,0.034,0.0625,0.113,0.0225,-0.0065,-0.0575
0.053,-0.056,-0.109,0.002,0.0815,-0.0825,0.0435,-0.071,-0.0475,0.029,0.058,0.1095,0.025,0.0065,-0.052
0.0655,-0.053,-0.1185,-0.006,0.0925,-0.086,0.044,-0.08,-0.0475,0.0315,0.062,0.1115,0.029,0.0215,-0.0535
0.041,-0.0625,-0.103,0.011,0.0725,-0.0825,0.0435,-0.074,-0.04,0.036,0.067,0.114,0.028,0.0365,-0.0605
0.037,-0.055,-0.092,0.0095,0.065,-0.0735,0.0425,-0.076,-0.0455,0.0305,0.0585,0.108,0.0205,0.025,-0.064
0.046,-0.049,-0.095,0.002,0.071,-0.072,0.047,-0.078,-0.0485,0.025,0.0545,0.1035,0.016,0.016,-0.0665
0.038,-0.0455,-0.0835,0.004,0.061,-0.0645,0.047,-0.0725,-0.0475,0.0265,0.0565,0.107,0.0165,0.04,-0.065
0.0315,-0.0445,-0.0755,0.007,0.0535,-0.06,0.048,-0.076,-0.0495,0.027,0.052,0.1045,0.0135,0.0305,-0.059
0.0495,-0.0365,-0.086,-0.006,0.068,-0.061,0.043,-0.0805,-0.048,0.0265,0.0505,0.1005,0.0135,0.0245,-0.058
0.058,-0.0285,-0.086,-0.0145,0.0725,-0.057,0.0395,-0.081,-0.05,0.0255,0.0515,0.1015,0.0165,0.037,-0.06
0.0375,-0.044,-0.0815,0.0035,0.06,-0.0625,0.0425,-0.075,-0.0485,0.025,0.048,0.097,0.0135,0.0375,-0.061
0.031,-0.0495,-0.0805,0.0095,0.056,-0.065,0.045,-0.073,-0.048,0.023,0.0475,0.0945,0.0125,0.037,-0.0615
0.04,-0.0435,-0.0835,0.002,0.062,-0.0635,0.0465,-0.0755,-0.05,0.022,0.045,0.094,0.0145,0.0385,-0.0595
0.04,-0.0495,-0.0895,0.005,0.065,-0.07,0.045,-0.073,-0.0475,0.023,0.045,0.0955,0.011,0.018,-0.059
0.0465,-0.053,-0.1,0.0035,0.0735,-0.0765,0.051,-0.0705,-0.045,0.0245,0.0485,0.099,0.0085,0.0065,-0.06
0.0545,-0.0525,-0.107,-0.0005,0.081,-0.08,0.0555,-0.0675,-0.0405,0.028,0.053,0.106,0.012,0.025,-0.061
0.0455,-0.0585,-0.1045,0.007,0.075,-0.0815,0.053,-0.0685,-0.0445,0.026,0.053,0.11,0.013,0.024,-0.0635
0.047,-0.0605,-0.1075,0.007,0.0775,-0.084,0.0525,-0.0725,-0.048,0.025,0.0525,0.111,0.0155,0.029,-0.062
0.049,-0.057,-0.1065,0.0045,0.078,-0.0815,0.046,-0.069,-0.0425,0.032,0.0635,0.119,0.024,0.03,-0.0585
0.0395,-0.065,-0.1045,0.013,0.0725,-0.0845,0.051,-0.0685,-0.043,0.0345,0.0675,0.1235,0.0275,0.021,-0.0585
0.045,-0.064,-0.109,0.01,0.0775,-0.0865,0.0515,-0.0695,-0.046,0.0335,0.066,0.122,0.0275,0.0075,-0.057
0.042,-0.0595,-0.1015,0.009,0.072,-0.0805,0.045,-0.074,-0.045,0.0365,0.068,0.1235,0.028,-0.001,-0.0585
0.0425,-0.058,-0.1005,0.008,0.072,-0.079,0.055,-0.074,-0.0415,0.0415,0.074,0.13,0.0315,0.0255,-0.0615
0.056,-0.044,-0.0995,-0.006,0.078,-0.0715,0.0445,-0.077,-0.04,0.0415,0.0745,0.1285,0.033,0.021,-0.0605
0.0445,-0.0405,-0.085,-0.002,0.065,-0.0625,0.035,-0.077,-0.043,0.0395,0.0705,0.1235,0.034,0.018,-0.058
0.039,-0.04,-0.079,0.0005,0.0595,-0.0595,0.0385,-0.0745,-0.0465,0.029,0.058,0.1105,0.026,0.0335,-0.058
0.04,-0.0375,-0.077,-0.001,0.0585,-0.0575,0.037,-0.0775,-0.052,0.0175,0.0465,0.1005,0.017,0.0325,-0.061
0.041,-0.036,-0.077,-0.002,0.059,-0.0565,0.046,-0.071,-0.051,0.0165,0.046,0.102,0.0125,0.036,-0.064
0.04,-0.0435,-0.0835,0.002,0.062,-0.0635,0.0505,-0.0745,-0.0495,0.0155,0.042,0.098,0.0115,0.037,-0.061
0.0305,-0.059,-0.0895,0.0145,0.0605,-0.074,0.051,-0.077,-0.0515,0.0165,0.0415,0.101,0.0175,0.0375,-0.055
0.0345,-0.0625,-0.0965,0.0145,0.0655,-0.0795,0.055,-0.072,-0.0485,0.0215,0.048,0.1075,0.0235,0.0335,-0.057
0.038,-0.0615,-0.0995,0.012,0.069,-0.0805,0.0535,-0.07,-0.043,0.0295,0.0575,0.116,0.029,0.024,-0.0625
0.039,-0.0625,-0.1015,0.012,0.0705,-0.0815,0.05,-0.0685,-0.041,0.033,0.0625,0.121,0.029,0.009,-0.063
0.037,-0.068,-0.105,0.0155,0.071,-0.0865,0.0485,-0.071,-0.0435,0.0315,0.0625,0.1215,0.026,0.003,-0.0595
0.0485,-0.0695,-0.1175,0.0105,0.0835,-0.0935,0.0525,-0.0625,-0.0355,0.0385,0.0695,0.1295,0.0325,0.008,-0.06
0.051,-0.078,-0.129,0.0135,0.0905,-0.1035,0.0525,-0.0565,-0.032,0.042,0.0725,0.1325,0.038,-0.0045,-0.061
0.0395,-0.0805,-0.12,0.0205,0.08,-0.1005,0.054,-0.0595,-0.037,0.039,0.072,0.1325,0.032,0.005,-0.064
0.037,-0.077,-0.114,0.02,0.076,-0.095,0.0605,-0.0595,-0.038,0.0395,0.072,0.1325,0.0275,0.0165,-0.0655
0.036,-0.08,-0.116,0.0225,0.0765,-0.098,0.064,-0.0615,-0.0415,0.034,0.0655,0.125,0.026,0.009,-0.0615
0.0475,-0.072,-0.1195,0.0125,0.0835,-0.0955,0.066,-0.0565,-0.0365,0.0385,0.0715,0.13,0.031,0.002,-0.065
0.0485,-0.071,-0.1195,0.0115,0.084,-0.095,0.062,-0.0585,-0.0345,0.042,0.0755,0.1355,0.0355,-0.011,-0.067
0.051,-0.0675,-0.1185,0.0085,0.085,-0.093,0.0545,-0.059,-0.035,0.04,0.073,0.133,0.035,0.0065,-0.0655
0.055,-0.0645,-0.1195,0.005,0.0875,-0.092,0.0505,-0.0555,-0.033,0.0435,0.0765,0.136,0.0375,0.017,-0.0645
0.0405,-0.0735,-0.114,0.0165,0.0775,-0.0935,0.064,-0.057,-0.0325,0.043,0.0765,0.1335,0.034,0.0145,-0.0655
0.033,-0.083,-0.116,0.0255,0.0745,-0.0995,0.061,-0.0575,-0.0305,0.0415,0.074,0.125,0.03,0.0185,-0.0665
