i,ii,iii,avr,avl,avf,v1,v2,v3,v4,v5,v6,vx,vy,vz
0.59,1.964,1.3745,-1.277,-0.392,1.6695,1.4215,1.205,1.1335,0.7745,1.331,0.955,0.4685,-0.3875,0.1325
0.596,1.967,1.3715,-1.2815,-0.3875,1.6695,1.4225,1.21,1.139,0.7755,1.335,0.9595,0.471,-0.387,0.1345
0.5955,1.9595,1.365,-1.2775,-0.3845,1.6625,1.4245,1.212,1.1405,0.7795,1.3375,0.9615,0.4715,-0.3915,0.1335
0.5945,1.961,1.367,-1.278,-0.386,1.6645,1.4215,1.2085,1.138,0.7785,1.3365,0.96,0.4715,-0.389,0.131
0.5945,1.968,1.374,-1.281,-0.39,1.6715,1.4215,1.206,1.137,0.778,1.3345,0.9595,0.4725,-0.387,0.131
0.599,1.966,1.3675,-1.2825,-0.384,1.667,1.4245,1.2095,1.14,0.7815,1.339,0.965,0.4725,-0.391,0.132
0.594,1.9555,1.362,-1.2745,-0.3835,1.659,1.429,1.2125,1.142,0.7825,1.3405,0.9655,0.4705,-0.3925,0.133
0.5925,1.9545,1.363,-1.2735,-0.385,1.659,1.427,1.2115,1.1405,0.7815,1.34,0.9645,0.4695,-0.3905,0.135
0.596,1.966,1.371,-1.281,-0.3875,1.669,1.42,1.207,1.135,0.7755,1.3365,0.961,0.471,-0.382,0.1355
0.5915,1.9795,1.3885,-1.2855,-0.398,1.684,1.4155,1.203,1.1325,0.7725,1.3315,0.955,0.4715,-0.3695,0.134
0.594,1.985,1.3915,-1.2895,-0.3985,1.6885,1.414,1.201,1.1285,0.77,1.3285,0.953,0.471,-0.369,0.136
0.5925,1.994,1.4025,-1.293,-0.405,1.6985,1.412,1.1955,1.124,0.766,1.3245,0.95,0.469,-0.3625,0.1355
0.59,1.9835,1.394,-1.287,-0.402,1.689,1.4135,1.2,1.1255,0.7695,1.3275,0.951,0.4665,-0.3615,0.1335
0.5915,1.963,1.372,-1.277,-0.39,1.6675,1.418,1.207,1.1275,0.775,1.332,0.9565,0.468,-0.3765,0.1375
0.5885,1.956,1.368,-1.2725,-0.3895,1.6625,1.421,1.207,1.1295,0.777,1.3345,0.961,0.469,-0.3835,0.1385
0.5895,1.953,1.364,-1.2715,-0.387,1.659,1.421,1.2035,1.1275,0.775,1.3335,0.9595,0.468,-0.3815,0.137
0.5905,1.9545,1.3645,-1.2725,-0.387,1.66,1.421,1.2035,1.127,0.7755,1.334,0.9605,0.467,-0.3805,0.1375
0.5915,1.975,1.384,-1.283,-0.396,1.68,1.4175,1.2015,1.1235,0.773,1.3315,0.9565,0.467,-0.369,0.137
0.5925,2.007,1.415,-1.2995,-0.411,1.711,1.406,1.19,1.112,0.7635,1.3205,0.942,0.465,-0.348,0.1345
0.5905,1.9915,1.4015,-1.291,-0.4055,1.6965,1.409,1.194,1.115,0.766,1.3225,0.946,0.464,-0.358,0.134
0.5895,1.976,1.387,-1.2825,-0.3985,1.6815,1.413,1.1975,1.119,0.771,1.3275,0.9505,0.465,-0.3695,0.1345
0.592,1.979,1.3875,-1.2855,-0.3975,1.6835,1.4105,1.193,1.1175,0.771,1.33,0.9515,0.465,-0.3705,0.136
0.5915,1.97,1.379,-1.281,-0.3935,1.675,1.4145,1.1965,1.1205,0.775,1.3335,0.9575,0.467,-0.3735,0.1365
0.5905,1.9725,1.3825,-1.2815,-0.3955,1.678,1.411,1.195,1.1175,0.7735,1.332,0.954,0.466,-0.365,0.1355
0.5935,1.9775,1.385,-1.2855,-0.3955,1.6815,1.4115,1.196,1.1175,0.773,1.332,0.955,0.468,-0.3635,0.135
0.594,1.9785,1.385,-1.286,-0.3955,1.682,1.4145,1.1975,1.118,0.7745,1.3345,0.9585,0.4695,-0.367,0.1345
0.5955,1.978,1.383,-1.2865,-0.3935,1.6805,1.414,1.1955,1.116,0.7735,1.3345,0.959,0.469,-0.368,0.1345
0.596,1.978,1.3825,-1.287,-0.393,1.6805,1.4125,1.1965,1.1175,0.774,1.335,0.9615,0.47,-0.3685,0.1345
0.592,1.975,1.3835,-1.2835,-0.3955,1.6795,1.411,1.1945,1.117,0.7725,1.334,0.961,0.4715,-0.368,0.1365
0.5885,1.982,1.394,-1.2855,-0.4025,1.688,1.411,1.193,1.1135,0.7695,1.3315,0.9595,0.472,-0.3585,0.1365
0.5885,1.981,1.3935,-1.285,-0.402,1.6875,1.4115,1.193,1.115,0.7715,1.3355,0.9605,0.471,-0.3555,0.1365
0.588,1.9695,1.382,-1.279,-0.3965,1.676,1.412,1.193,1.117,0.774,1.337,0.962,0.4705,-0.3665,0.1365
0.5865,1.9645,1.3785,-1.2755,-0.3955,1.672,1.4125,1.1935,1.1165,0.7725,1.3355,0.963,0.47,-0.3695,0.137
0.5845,1.948,1.3635,-1.2665,-0.389,1.656,1.4155,1.1975,1.119,0.777,1.339,0.9675,0.4705,-0.379,0.14
0.5835,1.9755,1.3925,-1.2795,-0.404,1.6845,1.4055,1.188,1.1075,0.7665,1.329,0.957,0.4685,-0.36,0.1395
0.585,2.0195,1.4355,-1.302,-0.425,1.728,1.3915,1.1715,1.0935,0.752,1.315,0.9425,0.4675,-0.331,0.1375
0.5845,2.0365,1.452,-1.3105,-0.4335,1.7445,1.387,1.165,1.0875,0.748,1.31,0.9385,0.467,-0.322,0.138
0.5845,2.0255,1.441,-1.305,-0.428,1.7335,1.3905,1.169,1.091,0.7495,1.3135,0.942,0.466,-0.3255,0.1395
0.5855,2.0005,1.4155,-1.293,-0.415,1.708,1.3995,1.178,1.0995,0.758,1.324,0.9505,0.4645,-0.3435,0.138
0.5845,1.996,1.412,-1.2905,-0.4135,1.7045,1.4015,1.179,1.1005,0.7595,1.3245,0.9525,0.464,-0.3475,0.138
0.5865,1.9845,1.3985,-1.2855,-0.4055,1.6915,1.4045,1.183,1.104,0.764,1.329,0.958,0.4645,-0.356,0.137
0.5895,1.98,1.391,-1.285,-0.4005,1.686,1.406,1.185,1.104,0.7665,1.332,0.9595,0.464,-0.3625,0.136
0.5905,1.9735,1.383,-1.282,-0.396,1.6785,1.407,1.186,1.1065,0.7665,1.332,0.959,0.464,-0.365,0.1395
0.5885,1.966,1.3775,-1.277,-0.3945,1.672,1.406,1.183,1.106,0.7675,1.333,0.959,0.463,-0.367,0.1385
0.587,1.973,1.386,-1.28,-0.399,1.6795,1.4045,1.182,1.1045,0.7665,1.3315,0.958,0.463,-0.366,0.138
0.586,1.979,1.3935,-1.2825,-0.4035,1.6865,1.403,1.1795,1.102,0.7635,1.329,0.9555,0.4615,-0.3615,0.1405
0.585,1.982,1.3975,-1.2835,-0.406,1.69,1.4015,1.174,1.0975,0.7605,1.3265,0.954,0.462,-0.358,0.1405
0.586,1.9805,1.395,-1.2835,-0.4045,1.688,1.403,1.177,1.098,0.76,1.3265,0.952,0.4615,-0.3595,0.139
0.5835,1.985,1.4015,-1.2845,-0.4085,1.6935,1.401,1.1725,1.0945,0.757,1.3245,0.9495,0.4615,-0.3515,0.1405
0.5815,1.9915,1.4105,-1.2865,-0.4145,1.7015,1.399,1.1695,1.091,0.755,1.323,0.948,0.463,-0.346,0.1415
0.5795,1.98,1.401,-1.2795,-0.4105,1.691,1.401,1.1735,1.0855,0.757,1.324,0.95,0.4625,-0.351,0.142
0.5745,1.965,1.391,-1.2695,-0.408,1.678,1.4015,1.1745,1.0825,0.758,1.326,0.953,0.463,-0.355,0.141
0.572,1.975,1.4035,-1.2735,-0.4155,1.6895,1.399,1.1685,1.076,0.7525,1.3235,0.949,0.4635,-0.3465,0.1405
0.5765,1.992,1.416,-1.284,-0.4195,1.704,1.398,1.164,1.0715,0.7505,1.319,0.9465,0.4645,-0.3375,0.142
0.5795,2.0,1.4205,-1.29,-0.42,1.7105,1.3955,1.1625,1.066,0.748,1.3185,0.9445,0.4645,-0.336,0.1415
0.588,2.0095,1.422,-1.2985,-0.4165,1.716,1.3965,1.1625,1.065,0.748,1.32,0.9445,0.464,-0.336,0.1415
0.599,2.0215,1.4235,-1.3105,-0.412,1.723,1.4015,1.168,1.0695,0.7535,1.3235,0.9495,0.463,-0.334,0.1415
0.5945,2.0115,1.4175,-1.303,-0.411,1.7145,1.4005,1.1675,1.066,0.752,1.321,0.9485,0.4625,-0.3375,0.1425
0.583,1.986,1.4035,-1.2845,-0.41,1.695,1.3995,1.165,1.063,0.75,1.32,0.947,0.461,-0.348,0.141
0.58,1.9815,1.4015,-1.281,-0.4105,1.692,1.401,1.1645,1.063,0.751,1.321,0.9485,0.4605,-0.3515,0.142
0.583,1.9845,1.4015,-1.284,-0.409,1.693,1.3995,1.164,1.0695,0.752,1.319,0.9475,0.4605,-0.3535,0.1415
0.5845,1.9825,1.398,-1.2835,-0.4065,1.6905,1.4005,1.164,1.0755,0.7535,1.3215,0.95,0.461,-0.356,0.141
0.585,1.9725,1.388,-1.279,-0.401,1.6805,1.405,1.168,1.0805,0.758,1.3245,0.9545,0.4615,-0.3605,0.1425
0.5845,1.9715,1.3875,-1.278,-0.4015,1.6795,1.402,1.1675,1.0815,0.7555,1.323,0.951,0.461,-0.3535,0.14
0.5835,1.987,1.404,-1.285,-0.41,1.6955,1.399,1.165,1.08,0.7515,1.321,0.9475,0.461,-0.346,0.142
0.584,1.9835,1.4005,-1.284,-0.408,1.692,1.402,1.168,1.082,0.753,1.3215,0.9495,0.46,-0.352,0.143
0.5835,1.9745,1.391,-1.279,-0.4035,1.683,1.403,1.1685,1.083,0.753,1.3225,0.95,0.4585,-0.356,0.1425
0.583,1.973,1.3905,-1.278,-0.403,1.682,1.403,1.168,1.0845,0.7535,1.323,0.9505,0.4585,-0.3585,0.143
0.583,1.979,1.396,-1.281,-0.406,1.688,1.4015,1.1655,1.0795,0.7495,1.3195,0.948,0.458,-0.3525,0.143
0.5835,1.986,1.403,-1.285,-0.4095,1.695,1.3985,1.163,1.0765,0.7455,1.318,0.946,0.4575,-0.346,0.144
0.583,1.995,1.4125,-1.2895,-0.4145,1.704,1.3955,1.1585,1.074,0.742,1.316,0.9435,0.4595,-0.341,0.1455
0.582,1.9715,1.39,-1.277,-0.4035,1.681,1.404,1.164,1.0805,0.7485,1.3225,0.9515,0.4595,-0.356,0.1455
0.5805,1.9605,1.3805,-1.2705,-0.4,1.6705,1.4015,1.163,1.0825,0.75,1.324,0.952,0.4585,-0.364,0.147
0.5795,1.9755,1.396,-1.2775,-0.408,1.686,1.398,1.1555,1.075,0.742,1.3165,0.947,0.4605,-0.3515,0.1495
0.579,1.9935,1.415,-1.286,-0.418,1.7045,1.392,1.1465,1.0655,0.7335,1.3105,0.9435,0.463,-0.3355,0.15
0.5795,2.051,1.472,-1.3155,-0.446,1.762,1.369,1.1265,1.0465,0.715,1.2915,0.923,0.463,-0.298,0.15
0.5805,2.0175,1.4375,-1.299,-0.428,1.7275,1.383,1.141,1.0595,0.729,1.303,0.9355,0.463,-0.3195,0.149
0.579,1.9715,1.393,-1.2755,-0.4065,1.6825,1.3975,1.1555,1.0745,0.7445,1.318,0.95,0.4625,-0.35,0.1485
0.5795,1.9925,1.413,-1.286,-0.4165,1.703,1.3925,1.15,1.069,0.7375,1.3105,0.9425,0.463,-0.338,0.1485
0.5805,1.995,1.415,-1.2875,-0.417,1.705,1.3895,1.1475,1.0675,0.737,1.3095,0.941,0.464,-0.3395,0.1485
0.5805,1.991,1.4115,-1.286,-0.415,1.7015,1.39,1.1475,1.067,0.737,1.3085,0.94,0.462,-0.344,0.149
0.58,1.986,1.4065,-1.283,-0.413,1.6965,1.393,1.1515,1.069,0.739,1.31,0.944,0.464,-0.345,0.149
0.5815,1.986,1.405,-1.2835,-0.4115,1.696,1.3925,1.1505,1.0665,0.7365,1.3105,0.944,0.464,-0.3425,0.15
0.5805,1.9835,1.4035,-1.282,-0.4115,1.694,1.394,1.149,1.0645,0.735,1.3095,0.9425,0.4625,-0.34,0.1485
0.58,1.978,1.398,-1.279,-0.409,1.6885,1.3965,1.1515,1.0665,0.7385,1.312,0.944,0.463,-0.3465,0.15
0.5815,1.9745,1.393,-1.278,-0.4055,1.684,1.3995,1.1525,1.068,0.739,1.3125,0.946,0.4595,-0.352,0.1515
0.58,1.9775,1.3975,-1.2785,-0.4085,1.6875,1.3945,1.1495,1.065,0.735,1.309,0.9425,0.4585,-0.349,0.152
0.582,1.9775,1.3955,-1.28,-0.4065,1.687,1.391,1.1445,1.0615,0.733,1.3085,0.9415,0.4585,-0.352,0.1545
0.5815,1.98,1.399,-1.2805,-0.4085,1.69,1.3915,1.144,1.061,0.7305,1.306,0.939,0.4575,-0.349,0.1545
0.577,1.986,1.41,-1.2815,-0.416,1.698,1.39,1.144,1.0615,0.729,1.3005,0.934,0.4565,-0.3405,0.1545
0.5775,2.0055,1.428,-1.2915,-0.425,1.717,1.385,1.135,1.053,0.721,1.2935,0.929,0.4575,-0.3295,0.1555
0.575,2.0095,1.4345,-1.2925,-0.4295,1.722,1.3815,1.1325,1.0495,0.719,1.292,0.9265,0.4555,-0.3255,0.1545
0.5725,1.9925,1.421,-1.2825,-0.424,1.707,1.388,1.138,1.056,0.726,1.296,0.9295,0.454,-0.3375,0.1535
0.5745,1.9965,1.423,-1.2855,-0.424,1.71,1.389,1.138,1.055,0.724,1.2965,0.929,0.455,-0.3365,0.1545
0.5735,1.9985,1.426,-1.286,-0.426,1.7125,1.381,1.1315,1.049,0.7185,1.2915,0.924,0.453,-0.329,0.1535
0.5725,2.002,1.43,-1.2875,-0.4285,1.7165,1.379,1.128,1.0475,0.7165,1.2885,0.922,0.4525,-0.3265,0.152
0.573,1.9995,1.427,-1.286,-0.427,1.7135,1.3805,1.1335,1.0515,0.721,1.292,0.926,0.454,-0.327,0.154
0.573,1.9895,1.4175,-1.281,-0.422,1.7035,1.3835,1.133,1.05,0.7235,1.2935,0.9295,0.4555,-0.3335,0.154
0.573,1.9815,1.4095,-1.2775,-0.418,1.6955,1.3865,1.1345,1.0515,0.726,1.297,0.9345,0.455,-0.3415,0.1535
0.575,1.992,1.4175,-1.2835,-0.421,1.705,1.382,1.1335,1.0505,0.725,1.298,0.932,0.456,-0.336,0.1525
0.5765,2.0055,1.4295,-1.291,-0.4265,1.718,1.3775,1.1285,1.046,0.7185,1.292,0.926,0.4545,-0.3295,0.151
0.572,1.9745,1.4035,-1.273,-0.416,1.6895,1.3885,1.138,1.054,0.727,1.299,0.934,0.4535,-0.349,0.1535
0.57,1.9575,1.388,-1.264,-0.4085,1.673,1.391,1.14,1.057,0.732,1.3055,0.939,0.454,-0.361,0.154
0.573,1.9725,1.4,-1.2725,-0.413,1.6865,1.382,1.1285,1.0495,0.7255,1.299,0.9325,0.454,-0.347,0.1535
0.574,1.9795,1.406,-1.277,-0.4155,1.693,1.3835,1.13,1.0505,0.7245,1.2975,0.9315,0.454,-0.3455,0.1545
0.5745,1.9815,1.407,-1.278,-0.416,1.6945,1.387,1.1345,1.053,0.7255,1.299,0.935,0.454,-0.35,0.1545
0.573,1.9745,1.4025,-1.2735,-0.4145,1.6885,1.39,1.135,1.0535,0.7285,1.3015,0.9355,0.453,-0.353,0.1535
0.5695,1.973,1.404,-1.2715,-0.417,1.689,1.3895,1.133,1.0525,0.725,1.297,0.9335,0.45,-0.3505,0.1545
0.5715,1.9755,1.4045,-1.2735,-0.4165,1.69,1.387,1.1335,1.0505,0.7235,1.2965,0.9345,0.4515,-0.347,0.1555
0.5725,2.0015,1.4295,-1.287,-0.4285,1.7155,1.3765,1.1235,1.041,0.7145,1.288,0.9255,0.4525,-0.3285,0.155
0.5715,2.005,1.4345,-1.288,-0.4315,1.72,1.375,1.1205,1.038,0.712,1.284,0.922,0.45,-0.325,0.1565
0.568,1.9715,1.4045,-1.27,-0.418,1.688,1.3885,1.132,1.0485,0.723,1.296,0.9345,0.4495,-0.345,0.1555
0.567,1.964,1.3975,-1.2655,-0.415,1.681,1.3905,1.1335,1.0515,0.723,1.295,0.939,0.4505,-0.347,0.1555
0.5705,1.981,1.411,-1.2755,-0.42,1.696,1.3875,1.13,1.048,0.7205,1.2905,0.934,0.4485,-0.3405,0.157
0.567,1.993,1.426,-1.28,-0.429,1.71,1.38,1.1205,1.0395,0.713,1.283,0.9255,0.447,-0.327,0.1545
0.566,1.9755,1.41,-1.271,-0.4215,1.693,1.3795,1.12,1.0405,0.715,1.285,0.9285,0.448,-0.337,0.1565
0.569,1.9545,1.386,-1.262,-0.408,1.6705,1.389,1.1285,1.0495,0.725,1.293,0.936,0.4475,-0.3555,0.159
0.57,1.9625,1.393,-1.266,-0.4115,1.678,1.3865,1.128,1.0475,0.724,1.29,0.933,0.4455,-0.3445,0.157
0.5705,2.0085,1.4385,-1.2895,-0.434,1.724,1.374,1.1135,1.032,0.71,1.275,0.9175,0.444,-0.3155,0.1535
0.5685,1.9985,1.4305,-1.2835,-0.4305,1.715,1.3775,1.114,1.0345,0.7115,1.2755,0.917,0.4405,-0.329,0.153
0.567,1.958,1.392,-1.2625,-0.412,1.6755,1.3875,1.1235,1.046,0.722,1.286,0.928,0.44,-0.354,0.155
0.57,1.961,1.3915,-1.2655,-0.4105,1.6765,1.3865,1.1245,1.0465,0.7215,1.287,0.929,0.443,-0.351,0.156
0.57,1.9665,1.397,-1.268,-0.4135,1.682,1.3845,1.127,1.0455,0.722,1.286,0.928,0.443,-0.3505,0.1585
0.5675,1.965,1.3985,-1.2665,-0.4155,1.682,1.3825,1.125,1.0435,0.72,1.2835,0.926,0.442,-0.349,0.1565
0.5685,1.9655,1.3975,-1.267,-0.4145,1.682,1.3845,1.125,1.044,0.722,1.285,0.927,0.442,-0.3495,0.1565
0.57,1.943,1.3735,-1.2565,-0.4015,1.6585,1.393,1.1325,1.0515,0.7295,1.293,0.9375,0.4435,-0.366,0.1585
0.57,1.925,1.355,-1.2475,-0.3925,1.64,1.396,1.136,1.055,0.7315,1.2975,0.9415,0.4455,-0.375,0.16
0.5705,1.9515,1.381,-1.261,-0.405,1.6665,1.3865,1.1285,1.0465,0.723,1.2895,0.9335,0.4465,-0.357,0.1635
0.5705,1.992,1.422,-1.281,-0.4255,1.707,1.374,1.1155,1.034,0.7095,1.276,0.921,0.448,-0.33,0.164
0.57,2.009,1.44,-1.2895,-0.4345,1.7245,1.368,1.1105,1.0285,0.704,1.272,0.9145,0.449,-0.318,0.1625
0.57,1.999,1.4295,-1.2845,-0.4295,1.7145,1.371,1.1115,1.0315,0.705,1.275,0.918,0.4515,-0.327,0.1625
0.5695,1.996,1.427,-1.283,-0.4285,1.712,1.3725,1.1105,1.03,0.7055,1.2745,0.918,0.4535,-0.3295,0.163
0.5705,1.993,1.4235,-1.2815,-0.426,1.7085,1.3725,1.114,1.031,0.7095,1.279,0.9195,0.455,-0.329,0.162
0.5695,1.9805,1.4115,-1.275,-0.4205,1.696,1.3795,1.1205,1.039,0.7175,1.287,0.927,0.4575,-0.3395,0.163
0.571,1.956,1.386,-1.2635,-0.407,1.6715,1.3815,1.122,1.0425,0.722,1.291,0.933,0.46,-0.3535,0.1635
0.569,1.9795,1.4115,-1.2745,-0.421,1.696,1.368,1.1045,1.0285,0.7085,1.2785,0.922,0.46,-0.3375,0.162
0.566,2.0165,1.4505,-1.291,-0.442,1.7335,1.3645,1.0995,1.0215,0.7015,1.272,0.915,0.4595,-0.315,0.1625
0.567,2.004,1.4375,-1.2855,-0.435,1.721,1.371,1.1095,1.0275,0.708,1.2785,0.9195,0.459,-0.318,0.162
0.5665,1.9885,1.4225,-1.2775,-0.4275,1.7055,1.375,1.1145,1.0305,0.7115,1.281,0.922,0.456,-0.329,0.1615
0.5695,1.9705,1.401,-1.27,-0.4155,1.686,1.3805,1.1155,1.0355,0.716,1.2845,0.9275,0.455,-0.342,0.1615
0.5695,1.971,1.402,-1.27,-0.416,1.6865,1.3785,1.111,1.0315,0.713,1.282,0.925,0.4525,-0.3405,0.1615
0.5665,1.9815,1.4155,-1.274,-0.4245,1.699,1.3745,1.11,1.0275,0.707,1.2765,0.921,0.451,-0.335,0.1615
0.567,1.977,1.41,-1.272,-0.421,1.6935,1.3755,1.1145,1.029,0.7085,1.2785,0.9215,0.451,-0.337,0.1625
0.566,1.9815,1.416,-1.274,-0.425,1.699,1.373,1.111,1.025,0.706,1.2765,0.919,0.4485,-0.33,0.1615
0.567,1.976,1.4095,-1.2715,-0.421,1.693,1.3775,1.1125,1.0305,0.71,1.28,0.924,0.4485,-0.3375,0.1605
0.568,1.964,1.3965,-1.266,-0.414,1.6805,1.383,1.1205,1.0375,0.7175,1.285,0.9285,0.4475,-0.346,0.1615
0.5685,1.9715,1.4035,-1.27,-0.417,1.688,1.382,1.1185,1.036,0.714,1.283,0.927,0.4475,-0.337,0.161
0.571,1.9785,1.4085,-1.275,-0.4185,1.694,1.3795,1.116,1.0325,0.7105,1.28,0.926,0.448,-0.333,0.162
0.5705,1.99,1.4205,-1.28,-0.425,1.7055,1.374,1.113,1.028,0.709,1.275,0.923,0.448,-0.325,0.1605
0.5695,1.9975,1.429,-1.2835,-0.4295,1.7135,1.3735,1.113,1.0285,0.7105,1.277,0.924,0.4485,-0.317,0.1575
0.57,1.993,1.4235,-1.2815,-0.4265,1.7085,1.374,1.1125,1.0305,0.711,1.278,0.9265,0.4485,-0.3205,0.1575
0.5695,1.9875,1.4185,-1.2785,-0.4245,1.7035,1.377,1.1185,1.0365,0.716,1.282,0.93,0.4485,-0.322,0.154
0.5675,1.996,1.429,-1.2815,-0.4305,1.7125,1.3745,1.117,1.035,0.716,1.2835,0.93,0.4485,-0.316,0.152
0.5695,2.003,1.434,-1.2865,-0.432,1.719,1.3735,1.1145,1.035,0.716,1.2835,0.932,0.451,-0.3145,0.1545
0.57,1.9935,1.424,-1.282,-0.427,1.7095,1.373,1.1185,1.038,0.719,1.2875,0.935,0.4545,-0.317,0.1535
0.5685,2.0,1.432,-1.2845,-0.4315,1.7165,1.3665,1.112,1.033,0.716,1.2845,0.931,0.4575,-0.3075,0.1525
0.572,2.0115,1.44,-1.2915,-0.434,1.726,1.3665,1.113,1.036,0.719,1.2865,0.931,0.459,-0.3,0.1545
0.5815,2.014,1.433,-1.298,-0.4255,1.724,1.365,1.1165,1.039,0.7235,1.2915,0.9345,0.4625,-0.3025,0.153
0.586,2.0135,1.4285,-1.2995,-0.421,1.721,1.3665,1.121,1.042,0.7275,1.295,0.9385,0.4655,-0.3045,0.1525
0.5855,1.9965,1.4115,-1.291,-0.4125,1.7045,1.376,1.133,1.054,0.739,1.3065,0.9495,0.468,-0.3115,0.1505
0.592,1.9945,1.403,-1.2935,-0.405,1.699,1.378,1.138,1.061,0.745,1.3135,0.9555,0.473,-0.3135,0.147
0.596,2.0085,1.4125,-1.3025,-0.408,1.7105,1.376,1.1405,1.062,0.7475,1.3145,0.9565,0.4785,-0.306,0.148
0.6,1.994,1.3945,-1.297,-0.397,1.6945,1.381,1.148,1.071,0.7575,1.3235,0.9665,0.482,-0.314,0.1475
0.603,2.001,1.3985,-1.302,-0.3975,1.7,1.3765,1.1465,1.071,0.7565,1.3225,0.965,0.484,-0.31,0.145
0.6055,2.051,1.4455,-1.3285,-0.4195,1.7485,1.3635,1.137,1.061,0.7465,1.313,0.953,0.487,-0.281,0.142
0.61,2.07,1.4605,-1.34,-0.425,1.7655,1.3585,1.136,1.0595,0.744,1.3105,0.95,0.4885,-0.27,0.141
0.6115,2.0555,1.444,-1.3335,-0.416,1.75,1.364,1.143,1.068,0.751,1.316,0.956,0.49,-0.2785,0.139
0.6135,2.054,1.441,-1.3335,-0.4135,1.7475,1.3665,1.1485,1.074,0.758,1.322,0.9615,0.4945,-0.28,0.139
0.6155,2.0555,1.441,-1.3355,-0.4125,1.7485,1.368,1.1515,1.0785,0.761,1.326,0.9645,0.497,-0.276,0.139
0.6165,2.044,1.428,-1.33,-0.4055,1.736,1.3725,1.158,1.0865,0.7685,1.3325,0.971,0.499,-0.281,0.1365
0.6185,2.0545,1.4365,-1.3365,-0.4085,1.7455,1.365,1.156,1.084,0.7645,1.3295,0.9685,0.501,-0.2725,0.139
0.6155,2.075,1.4605,-1.345,-0.4225,1.768,1.3585,1.1495,1.078,0.7575,1.3225,0.9595,0.499,-0.257,0.1385
0.611,2.0835,1.473,-1.3475,-0.431,1.7785,1.3575,1.149,1.078,0.76,1.3245,0.959,0.498,-0.2495,0.1345
0.6155,2.087,1.472,-1.351,-0.428,1.78,1.3595,1.1505,1.081,0.7645,1.33,0.9655,0.4995,-0.2465,0.1355
0.6125,2.08,1.4685,-1.3465,-0.4275,1.7745,1.3585,1.151,1.082,0.765,1.329,0.9655,0.496,-0.2445,0.132
0.607,2.078,1.471,-1.3425,-0.4315,1.7745,1.354,1.1485,1.0795,0.7625,1.3255,0.961,0.494,-0.2405,0.1285
0.6085,2.08,1.472,-1.344,-0.4315,1.776,1.3585,1.1535,1.0815,0.765,1.326,0.963,0.495,-0.242,0.128
0.6075,2.0835,1.476,-1.3455,-0.434,1.78,1.363,1.158,1.0865,0.7695,1.3285,0.965,0.496,-0.2405,0.1235
0.6075,2.082,1.475,-1.345,-0.4335,1.779,1.365,1.1635,1.089,0.773,1.329,0.9645,0.4985,-0.248,0.1205
0.61,2.073,1.4635,-1.3415,-0.4265,1.7685,1.3675,1.169,1.0935,0.7745,1.3305,0.967,0.501,-0.258,0.1195
0.6135,2.0625,1.4495,-1.338,-0.418,1.7565,1.372,1.175,1.1025,0.783,1.3375,0.972,0.5035,-0.263,0.1165
0.6145,2.051,1.437,-1.3325,-0.411,1.7445,1.3785,1.184,1.109,0.792,1.343,0.976,0.507,-0.2745,0.114
0.6145,2.0415,1.4275,-1.328,-0.4065,1.735,1.384,1.189,1.1135,0.7945,1.3475,0.9795,0.5095,-0.2825,0.1115
0.6145,2.0445,1.4305,-1.3295,-0.408,1.7375,1.3805,1.1865,1.115,0.795,1.3475,0.978,0.51,-0.2785,0.1065
0.615,2.0515,1.4375,-1.3335,-0.411,1.745,1.3765,1.1855,1.113,0.7925,1.343,0.975,0.5095,-0.2775,0.1065
0.6125,2.044,1.4315,-1.328,-0.409,1.738,1.375,1.1855,1.113,0.7925,1.344,0.9755,0.507,-0.288,0.1095
0.6135,2.037,1.424,-1.325,-0.405,1.731,1.371,1.1795,1.1095,0.7905,1.343,0.975,0.5055,-0.292,0.111
0.6165,2.0445,1.429,-1.3305,-0.406,1.737,1.37,1.185,1.114,0.794,1.3465,0.978,0.5095,-0.2855,0.1105
0.618,2.0495,1.4325,-1.334,-0.407,1.741,1.3665,1.189,1.1175,0.7975,1.349,0.981,0.5135,-0.282,0.1105
0.6205,2.0505,1.43,-1.3355,-0.4045,1.7405,1.362,1.184,1.1135,0.794,1.349,0.9815,0.5155,-0.279,0.115
0.618,2.057,1.44,-1.3375,-0.4105,1.749,1.356,1.1765,1.111,0.793,1.3495,0.9825,0.519,-0.269,0.1185
0.618,2.0535,1.436,-1.3355,-0.409,1.745,1.351,1.1685,1.1075,0.7915,1.348,0.984,0.52,-0.272,0.122
0.622,2.059,1.438,-1.3405,-0.4075,1.749,1.3435,1.159,1.0995,0.7885,1.3465,0.9835,0.5205,-0.2645,0.1275
0.621,2.062,1.441,-1.3415,-0.4095,1.752,1.339,1.1455,1.0885,0.7835,1.3435,0.9835,0.5185,-0.2625,0.1335
0.621,2.0575,1.437,-1.3395,-0.4075,1.7475,1.3325,1.1315,1.076,0.774,1.3365,0.979,0.514,-0.2655,0.1385
0.617,2.063,1.4465,-1.34,-0.4145,1.755,1.3215,1.113,1.0615,0.7615,1.325,0.9685,0.511,-0.2555,0.1435
0.6145,2.058,1.4445,-1.336,-0.415,1.7515,1.3215,1.1085,1.0555,0.7565,1.321,0.9675,0.5095,-0.2605,0.15
0.6125,2.043,1.431,-1.3275,-0.409,1.737,1.324,1.111,1.0555,0.7565,1.3215,0.9695,0.5075,-0.2725,0.1555
0.6135,2.025,1.412,-1.319,-0.3995,1.719,1.3275,1.1125,1.057,0.758,1.323,0.9735,0.5065,-0.285,0.1595
0.617,2.0345,1.4185,-1.326,-0.4005,1.727,1.3195,1.107,1.051,0.7535,1.319,0.9675,0.5055,-0.2805,0.162
0.6225,2.0375,1.415,-1.33,-0.396,1.7265,1.311,1.1005,1.0435,0.748,1.316,0.966,0.5065,-0.287,0.1685
0.629,2.0185,1.3905,-1.324,-0.3805,1.705,1.306,1.0995,1.0425,0.749,1.319,0.972,0.51,-0.301,0.1795
0.6305,2.0045,1.374,-1.3175,-0.3715,1.6895,1.3025,1.101,1.0465,0.7535,1.3245,0.9775,0.515,-0.3085,0.1815
0.6355,2.0185,1.384,-1.327,-0.374,1.7015,1.298,1.102,1.0485,0.7565,1.327,0.9795,0.523,-0.3005,0.1755
0.641,2.0375,1.397,-1.3395,-0.3775,1.7175,1.2945,1.1015,1.049,0.757,1.3265,0.9785,0.5275,-0.293,0.1735
0.65,2.033,1.3835,-1.3415,-0.3665,1.7085,1.2975,1.1085,1.0585,0.7655,1.336,0.9875,0.535,-0.3015,0.172
0.654,2.033,1.38,-1.3435,-0.363,1.7065,1.297,1.1105,1.0605,0.7695,1.3415,0.993,0.543,-0.3035,0.1705
0.658,2.0365,1.3785,-1.3475,-0.36,1.708,1.2935,1.109,1.0585,0.768,1.34,0.992,0.546,-0.3055,0.168
0.6615,2.031,1.37,-1.346,-0.354,1.7005,1.2925,1.1105,1.062,0.7725,1.3465,0.9965,0.551,-0.3055,0.17
0.6615,2.033,1.372,-1.347,-0.355,1.7025,1.288,1.1065,1.058,0.7685,1.343,0.9945,0.551,-0.3015,0.1775
0.6635,2.0385,1.376,-1.351,-0.356,1.7075,1.2835,1.1015,1.05,0.762,1.338,0.99,0.5515,-0.2975,0.1835
0.6605,2.03,1.37,-1.3455,-0.3545,1.7,1.2825,1.0975,1.0475,0.7615,1.3375,0.9915,0.552,-0.303,0.186
0.6615,2.0385,1.3775,-1.35,-0.358,1.7085,1.279,1.092,1.0445,0.7585,1.3355,0.988,0.551,-0.296,0.188
0.6645,2.032,1.368,-1.348,-0.3515,1.7,1.2835,1.096,1.0455,0.762,1.3425,0.9945,0.5535,-0.2985,0.193
0.6675,2.0405,1.373,-1.354,-0.3525,1.707,1.276,1.0875,1.035,0.755,1.336,0.993,0.5555,-0.291,0.1985
0.671,2.0695,1.399,-1.3705,-0.3635,1.7345,1.261,1.0735,1.024,0.7435,1.326,0.9835,0.5595,-0.265,0.2
0.672,2.086,1.4145,-1.379,-0.371,1.7505,1.2575,1.0695,1.021,0.741,1.322,0.981,0.56,-0.253,0.197
0.6725,2.0965,1.4245,-1.3845,-0.376,1.7605,1.26,1.068,1.0205,0.744,1.326,0.9835,0.5585,-0.244,0.195
0.6755,2.08,1.405,-1.378,-0.3645,1.743,1.264,1.074,1.0285,0.7535,1.3365,0.9925,0.5585,-0.251,0.194
0.678,2.0625,1.385,-1.3705,-0.353,1.724,1.2705,1.078,1.0325,0.757,1.3405,0.997,0.556,-0.262,0.195
0.675,2.052,1.3775,-1.3635,-0.351,1.715,1.2765,1.08,1.033,0.7575,1.3425,1.0,0.5535,-0.2665,0.193
0.6725,2.0615,1.39,-1.367,-0.3585,1.726,1.2745,1.0745,1.026,0.752,1.334,0.9935,0.548,-0.259,0.1915
0.6725,2.086,1.4145,-1.3795,-0.3705,1.7505,1.2675,1.0635,1.015,0.7405,1.322,0.9815,0.5445,-0.2455,0.1895
0.6675,2.087,1.42,-1.3775,-0.376,1.7535,1.2675,1.0625,1.0125,0.735,1.317,0.975,0.5385,-0.2465,0.182
0.662,2.0535,1.392,-1.3575,-0.3645,1.723,1.284,1.0745,1.0215,0.743,1.3235,0.9795,0.5325,-0.2705,0.1765
0.6655,2.033,1.368,-1.3495,-0.351,1.7005,1.2935,1.0835,1.026,0.7465,1.327,0.9835,0.5305,-0.2905,0.1725
0.664,2.0155,1.352,-1.3395,-0.344,1.684,1.298,1.0835,1.0235,0.7415,1.3215,0.979,0.523,-0.3065,0.1725
0.654,2.03,1.377,-1.342,-0.3615,1.7035,1.2955,1.072,1.008,0.7225,1.3025,0.96,0.5145,-0.3,0.1745
0.6495,2.056,1.407,-1.353,-0.379,1.732,1.2815,1.0605,0.994,0.7045,1.2835,0.941,0.5105,-0.285,0.176
0.6495,2.001,1.352,-1.3255,-0.351,1.6765,1.295,1.0755,1.009,0.718,1.2955,0.955,0.512,-0.328,0.174
0.648,1.976,1.3285,-1.312,-0.34,1.6525,1.31,1.085,1.015,0.725,1.301,0.9605,0.5115,-0.3495,0.1705
0.6425,1.9715,1.3295,-1.307,-0.343,1.6505,1.3125,1.087,1.016,0.725,1.299,0.958,0.508,-0.3495,0.168
0.636,1.972,1.3365,-1.304,-0.35,1.6545,1.312,1.0845,1.0135,0.7225,1.295,0.953,0.503,-0.3475,0.1665
0.6345,1.9855,1.3515,-1.31,-0.358,1.6685,1.307,1.077,1.0045,0.713,1.2865,0.944,0.496,-0.3365,0.169
0.6335,1.99,1.357,-1.312,-0.3615,1.674,1.304,1.072,0.9985,0.707,1.281,0.9395,0.4945,-0.331,0.1715
0.6275,1.9985,1.3715,-1.313,-0.372,1.6855,1.2975,1.064,0.9905,0.6995,1.273,0.932,0.492,-0.3205,0.174
0.6275,1.9905,1.3635,-1.309,-0.3675,1.6775,1.297,1.0635,0.9895,0.6985,1.272,0.93,0.4905,-0.3245,0.1735
0.6315,2.0005,1.3695,-1.316,-0.369,1.6855,1.295,1.06,0.9865,0.6965,1.27,0.929,0.491,-0.32,0.1725
0.632,1.974,1.3425,-1.303,-0.355,1.6585,1.3025,1.065,0.993,0.705,1.276,0.9375,0.4895,-0.34,0.1725
0.6325,1.9555,1.324,-1.294,-0.3455,1.64,1.3065,1.066,0.99,0.7,1.273,0.9345,0.484,-0.355,0.177
0.635,1.957,1.3225,-1.296,-0.3435,1.64,1.3035,1.0625,0.9855,0.6935,1.266,0.9275,0.4805,-0.3585,0.177
0.638,1.931,1.2925,-1.2845,-0.327,1.612,1.3125,1.0705,0.9935,0.7025,1.2705,0.933,0.4805,-0.3795,0.177
0.6385,1.932,1.2935,-1.285,-0.3275,1.6125,1.3105,1.0665,0.987,0.696,1.265,0.929,0.48,-0.377,0.182
0.638,1.942,1.304,-1.29,-0.3325,1.623,1.305,1.0575,0.977,0.6845,1.255,0.92,0.476,-0.367,0.183
0.639,1.936,1.297,-1.287,-0.329,1.6165,1.3045,1.0585,0.976,0.682,1.253,0.918,0.474,-0.375,0.1845
0.639,1.926,1.287,-1.282,-0.324,1.6065,1.3095,1.063,0.981,0.6865,1.256,0.9215,0.4725,-0.3835,0.186
0.637,1.9345,1.2975,-1.2855,-0.33,1.616,1.31,1.06,0.978,0.681,1.2505,0.9145,0.468,-0.378,0.1855
0.6275,1.935,1.3075,-1.281,-0.3395,1.6215,1.31,1.06,0.9755,0.6775,1.246,0.9085,0.4625,-0.3795,0.1845
0.6175,1.937,1.3195,-1.277,-0.351,1.6285,1.3155,1.0635,0.9785,0.6815,1.2495,0.911,0.46,-0.3685,0.1825
0.604,1.964,1.3605,-1.284,-0.378,1.6625,1.312,1.0595,0.973,0.6765,1.242,0.902,0.4565,-0.3415,0.179
0.5865,1.9615,1.3755,-1.274,-0.394,1.6685,1.3215,1.0605,0.9735,0.675,1.236,0.894,0.4485,-0.3385,0.1755
0.572,1.9525,1.381,-1.2625,-0.4045,1.667,1.33,1.0665,0.976,0.6755,1.234,0.8885,0.44,-0.3405,0.173
0.5585,1.952,1.394,-1.255,-0.4175,1.673,1.339,1.0735,0.9785,0.6745,1.231,0.884,0.433,-0.34,0.169
0.5505,1.947,1.397,-1.2485,-0.423,1.672,1.3485,1.0805,0.9865,0.6805,1.2355,0.888,0.4305,-0.3425,0.1655
0.5435,1.9525,1.4095,-1.248,-0.433,1.6815,1.3465,1.08,0.9865,0.6825,1.2335,0.886,0.4295,-0.335,0.161
0.5415,1.9525,1.4115,-1.247,-0.4345,1.682,1.3495,1.083,0.9905,0.6835,1.236,0.8885,0.4315,-0.3295,0.1595
0.5405,1.9635,1.4235,-1.252,-0.4415,1.694,1.343,1.08,0.988,0.681,1.2345,0.8855,0.4325,-0.317,0.1565
0.5375,1.964,1.4265,-1.251,-0.444,1.6955,1.343,1.078,0.9875,0.6815,1.2325,0.883,0.4305,-0.317,0.155
0.5395,1.948,1.409,-1.244,-0.434,1.679,1.348,1.0835,0.993,0.689,1.2395,0.891,0.43,-0.331,0.1555
0.537,1.9415,1.4045,-1.239,-0.4335,1.673,1.351,1.0855,0.992,0.6905,1.238,0.89,0.428,-0.334,0.1545
0.5345,1.9295,1.395,-1.232,-0.43,1.6625,1.357,1.0905,0.997,0.693,1.2425,0.8935,0.427,-0.3435,0.1535
0.5365,1.9285,1.392,-1.232,-0.4275,1.66,1.358,1.0915,0.997,0.695,1.245,0.896,0.426,-0.3435,0.154
0.535,1.933,1.398,-1.2335,-0.431,1.6655,1.3595,1.091,0.9955,0.6925,1.2425,0.8945,0.426,-0.34,0.155
0.533,1.9345,1.4015,-1.2335,-0.434,1.668,1.356,1.087,0.9915,0.687,1.2395,0.893,0.4245,-0.339,0.154
0.535,1.941,1.4055,-1.2375,-0.435,1.6735,1.3535,1.0805,0.989,0.686,1.2375,0.8935,0.426,-0.335,0.1565
0.5395,1.931,1.3915,-1.2355,-0.4255,1.6615,1.3575,1.087,0.992,0.6895,1.2415,0.9,0.4285,-0.345,0.16
0.5425,1.9215,1.379,-1.232,-0.418,1.6505,1.356,1.085,0.9905,0.69,1.241,0.9,0.4285,-0.351,0.1605
0.5425,1.917,1.374,-1.2295,-0.4155,1.645,1.357,1.083,0.9905,0.689,1.242,0.8995,0.4265,-0.357,0.1615
0.543,1.9315,1.3885,-1.237,-0.4225,1.66,1.353,1.081,0.9865,0.6825,1.237,0.895,0.426,-0.348,0.163
0.5425,1.96,1.418,-1.2515,-0.4375,1.689,1.341,1.0695,0.9765,0.6735,1.227,0.8865,0.429,-0.3255,0.1655
0.5425,1.947,1.405,-1.2445,-0.431,1.676,1.3435,1.0715,0.9795,0.677,1.2325,0.8905,0.4295,-0.3325,0.167
0.539,1.931,1.3915,-1.235,-0.426,1.661,1.3485,1.0745,0.9825,0.6795,1.235,0.8945,0.4275,-0.3445,0.1665
0.54,1.935,1.395,-1.2375,-0.4275,1.665,1.3465,1.0685,0.9765,0.674,1.2305,0.891,0.4245,-0.343,0.1685
0.5395,1.939,1.399,-1.239,-0.4295,1.669,1.3465,1.0665,0.9775,0.6745,1.232,0.891,0.425,-0.34,0.169
0.533,1.94,1.407,-1.2365,-0.437,1.6735,1.347,1.068,0.977,0.6735,1.2305,0.889,0.4225,-0.3355,0.1665
0.5305,1.9425,1.4125,-1.236,-0.4405,1.6775,1.3455,1.067,0.976,0.673,1.23,0.8895,0.424,-0.3315,0.1655
0.53,1.94,1.41,-1.2345,-0.44,1.675,1.344,1.0655,0.974,0.6735,1.2325,0.891,0.4245,-0.3315,0.163
0.529,1.9355,1.406,-1.232,-0.4385,1.671,1.344,1.063,0.9725,0.673,1.2315,0.8885,0.42,-0.3295,0.163
0.528,1.9355,1.4075,-1.2315,-0.4395,1.6715,1.347,1.069,0.977,0.6785,1.236,0.8915,0.4205,-0.3295,0.162
0.529,1.9155,1.387,-1.222,-0.429,1.6515,1.3525,1.0775,0.984,0.685,1.243,0.898,0.4215,-0.343,0.1625
0.5285,1.8955,1.3665,-1.212,-0.419,1.631,1.356,1.0785,0.989,0.691,1.2495,0.9045,0.42,-0.3585,0.163
0.5295,1.902,1.3725,-1.2155,-0.4215,1.6375,1.3545,1.077,0.9875,0.691,1.2475,0.902,0.421,-0.3545,0.1655
0.5285,1.9235,1.395,-1.226,-0.433,1.659,1.347,1.0735,0.98,0.683,1.2375,0.8945,0.4225,-0.34,0.1685
0.5285,1.932,1.404,-1.23,-0.4375,1.668,1.3395,1.0655,0.974,0.677,1.234,0.8895,0.421,-0.3335,0.165
0.5285,1.9375,1.4095,-1.2325,-0.44,1.6735,1.339,1.0635,0.973,0.6765,1.234,0.8885,0.4215,-0.33,0.166
0.5275,1.9395,1.4125,-1.233,-0.4425,1.676,1.341,1.067,0.976,0.678,1.2345,0.8885,0.421,-0.3345,0.1655
0.5295,1.927,1.3975,-1.228,-0.434,1.6625,1.3445,1.0695,0.978,0.678,1.2355,0.89,0.419,-0.341,0.1645
0.5295,1.932,1.4025,-1.23,-0.4365,1.6675,1.3435,1.069,0.977,0.677,1.235,0.8875,0.4175,-0.3345,0.165
0.529,1.941,1.412,-1.2345,-0.441,1.6765,1.3385,1.0655,0.9735,0.6745,1.2295,0.884,0.4185,-0.329,0.166
0.527,1.9465,1.42,-1.2365,-0.446,1.6835,1.337,1.0645,0.97,0.6715,1.2265,0.8815,0.4195,-0.323,0.1665
0.5265,1.93,1.4035,-1.228,-0.438,1.6665,1.3425,1.0695,0.9755,0.676,1.2325,0.888,0.4195,-0.336,0.167
0.526,1.908,1.382,-1.2165,-0.428,1.645,1.35,1.074,0.98,0.6825,1.2365,0.894,0.4175,-0.351,0.1665
0.526,1.9155,1.389,-1.2205,-0.4315,1.652,1.346,1.0695,0.9775,0.6795,1.232,0.89,0.4165,-0.345,0.1655
0.5295,1.943,1.414,-1.236,-0.442,1.6785,1.337,1.063,0.9705,0.673,1.224,0.885,0.4195,-0.3275,0.169
0.5285,1.954,1.4265,-1.2415,-0.4485,1.6905,1.332,1.0555,0.9605,0.6665,1.218,0.878,0.418,-0.3145,0.1685
0.5295,1.949,1.42,-1.2395,-0.445,1.685,1.333,1.0545,0.961,0.6665,1.217,0.878,0.419,-0.319,0.1675
0.527,1.9635,1.4375,-1.245,-0.455,1.701,1.3285,1.0515,0.9595,0.663,1.213,0.872,0.4185,-0.31,0.1665
0.525,1.9705,1.4455,-1.2475,-0.46,1.708,1.3225,1.0445,0.952,0.657,1.206,0.864,0.4155,-0.3045,0.165
0.5275,1.9605,1.434,-1.244,-0.453,1.6975,1.327,1.0515,0.9585,0.6635,1.2115,0.8695,0.415,-0.3135,0.1645
0.5295,1.948,1.419,-1.239,-0.4445,1.6835,1.3315,1.052,0.9615,0.6665,1.2165,0.8745,0.414,-0.3205,0.1645
0.5305,1.938,1.4075,-1.234,-0.4385,1.6725,1.334,1.0525,0.9605,0.6685,1.2145,0.877,0.4145,-0.33,0.1655
0.5295,1.9355,1.406,-1.232,-0.438,1.671,1.3375,1.063,0.967,0.675,1.2205,0.8795,0.4155,-0.331,0.1635
0.527,1.9445,1.4185,-1.2355,-0.4455,1.6815,1.337,1.062,0.9655,0.6725,1.219,0.875,0.4135,-0.3245,0.1635
0.523,1.9485,1.426,-1.2355,-0.4515,1.6875,1.33,1.0545,0.959,0.6665,1.212,0.8705,0.4125,-0.3195,0.1635
0.528,1.93,1.402,-1.229,-0.4365,1.666,1.337,1.062,0.966,0.6755,1.2195,0.8805,0.415,-0.333,0.166
0.528,1.9115,1.383,-1.2195,-0.4275,1.647,1.347,1.0695,0.9755,0.682,1.2285,0.889,0.4145,-0.348,0.166
0.5255,1.9255,1.4,-1.2255,-0.437,1.6625,1.3405,1.0605,0.9695,0.6745,1.222,0.8825,0.413,-0.3385,0.1645
0.527,1.932,1.405,-1.229,-0.439,1.6685,1.339,1.0575,0.9665,0.672,1.218,0.878,0.4105,-0.334,0.165
0.525,1.92,1.395,-1.2225,-0.435,1.658,1.343,1.063,0.97,0.6745,1.222,0.8815,0.409,-0.338,0.166
0.526,1.923,1.397,-1.2245,-0.435,1.66,1.3405,1.063,0.9695,0.674,1.2215,0.881,0.4095,-0.3355,0.1665
0.5245,1.9515,1.427,-1.238,-0.451,1.6895,1.3285,1.0505,0.9575,0.664,1.212,0.8705,0.409,-0.317,0.167
0.521,1.9535,1.433,-1.237,-0.4555,1.6935,1.329,1.051,0.9575,0.6635,1.212,0.8685,0.409,-0.3145,0.166
0.5215,1.9295,1.408,-1.225,-0.443,1.6685,1.337,1.059,0.966,0.67,1.2185,0.8765,0.4105,-0.3305,0.166
0.522,1.939,1.417,-1.2305,-0.447,1.678,1.3335,1.055,0.9635,0.6695,1.217,0.8745,0.412,-0.3255,0.1695
0.52,1.941,1.4215,-1.2305,-0.4505,1.6815,1.332,1.053,0.962,0.668,1.216,0.8715,0.411,-0.3225,0.1685
0.5185,1.945,1.4265,-1.232,-0.454,1.6865,1.3265,1.0465,0.956,0.663,1.21,0.867,0.41,-0.315,0.1675
0.518,1.933,1.415,-1.2255,-0.448,1.674,1.33,1.05,0.96,0.668,1.214,0.87,0.408,-0.3225,0.1675
0.5155,1.911,1.395,-1.213,-0.4395,1.653,1.336,1.057,0.9675,0.6735,1.2195,0.8755,0.406,-0.337,0.166
0.516,1.8945,1.3785,-1.205,-0.431,1.6365,1.3425,1.063,0.973,0.6795,1.223,0.881,0.4055,-0.3475,0.166
0.5165,1.891,1.374,-1.2035,-0.4285,1.6325,1.343,1.0635,0.974,0.6815,1.227,0.881,0.404,-0.354,0.1655
0.517,1.934,1.417,-1.2255,-0.4495,1.676,1.329,1.05,0.961,0.668,1.213,0.867,0.4035,-0.3275,0.165
0.5205,1.9465,1.426,-1.2335,-0.4525,1.6865,1.325,1.047,0.957,0.6655,1.2095,0.8655,0.405,-0.3165,0.167
0.52,1.9235,1.4035,-1.2215,-0.4415,1.6635,1.3325,1.054,0.9645,0.6725,1.2175,0.875,0.4065,-0.332,0.168
0.5205,1.9245,1.404,-1.2225,-0.4415,1.6645,1.331,1.0525,0.9615,0.67,1.215,0.873,0.4065,-0.3275,0.1665
0.522,1.917,1.395,-1.219,-0.436,1.656,1.333,1.054,0.9645,0.674,1.218,0.876,0.4065,-0.3335,0.1665
0.5215,1.921,1.3995,-1.221,-0.439,1.6605,1.3345,1.0555,0.9685,0.676,1.222,0.881,0.4105,-0.3345,0.1675
0.525,1.9445,1.4195,-1.2345,-0.447,1.682,1.324,1.0485,0.961,0.67,1.2145,0.875,0.411,-0.314,0.168
0.524,1.9365,1.4125,-1.23,-0.444,1.6745,1.3255,1.0505,0.9625,0.671,1.215,0.877,0.41,-0.3225,0.169
0.5215,1.9335,1.412,-1.2275,-0.445,1.6725,1.325,1.0495,0.9615,0.6705,1.2155,0.877,0.411,-0.325,0.17
0.522,1.9365,1.4145,-1.229,-0.446,1.6755,1.324,1.047,0.9605,0.67,1.2135,0.874,0.4115,-0.3205,0.1705
0.522,1.938,1.4155,-1.23,-0.4465,1.6765,1.3235,1.047,0.9625,0.67,1.2145,0.8765,0.4135,-0.316,0.171
0.518,1.943,1.4255,-1.2305,-0.4535,1.684,1.321,1.0445,0.959,0.667,1.212,0.8735,0.4115,-0.313,0.171
0.517,1.9395,1.422,-1.228,-0.4525,1.6805,1.3215,1.0455,0.958,0.6675,1.212,0.873,0.4125,-0.3195,0.17
0.5215,1.938,1.417,-1.2295,-0.4475,1.6775,1.32,1.045,0.9595,0.6695,1.213,0.8765,0.416,-0.318,0.1715
0.517,1.937,1.42,-1.227,-0.4515,1.6785,1.3185,1.043,0.9575,0.6685,1.212,0.8725,0.415,-0.3135,0.1705
0.5145,1.941,1.4265,-1.2275,-0.456,1.684,1.316,1.041,0.957,0.668,1.2095,0.8695,0.4175,-0.3105,0.17
0.5165,1.9515,1.4355,-1.234,-0.4595,1.694,1.314,1.0435,0.9615,0.6735,1.213,0.8725,0.422,-0.306,0.167
0.5185,1.9445,1.426,-1.2315,-0.4535,1.6855,1.316,1.053,0.973,0.684,1.221,0.878,0.427,-0.305,0.1625
0.5215,1.933,1.411,-1.227,-0.4445,1.672,1.3215,1.0625,0.9845,0.694,1.23,0.8865,0.432,-0.312,0.162
0.526,1.935,1.409,-1.2305,-0.441,1.672,1.325,1.074,0.996,0.706,1.2395,0.8935,0.4375,-0.3135,0.16
0.53,1.9435,1.414,-1.2365,-0.442,1.679,1.325,1.09,1.016,0.7215,1.2485,0.9,0.4465,-0.3065,0.153
0.535,1.957,1.4225,-1.246,-0.4435,1.69,1.3315,1.1215,1.0505,0.7495,1.2665,0.9095,0.4575,-0.2945,0.1415
0.534,1.968,1.435,-1.251,-0.45,1.7015,1.3415,1.1665,1.1025,0.7895,1.291,0.922,0.469,-0.2835,0.124
0.5215,1.9885,1.467,-1.255,-0.4725,1.728,1.3525,1.2105,1.152,0.8255,1.3115,0.933,0.4765,-0.2575,0.099
0.5145,2.013,1.499,-1.264,-0.492,1.7565,1.3725,1.268,1.2165,0.876,1.342,0.9495,0.488,-0.229,0.0695
0.505,2.034,1.5295,-1.2695,-0.512,1.782,1.404,1.357,1.3095,0.941,1.379,0.9685,0.5,-0.207,0.0285
0.4915,2.0635,1.5725,-1.2775,-0.54,1.8175,1.436,1.442,1.3955,1.0015,1.413,0.9855,0.5135,-0.169,-0.0175
0.4835,2.111,1.628,-1.297,-0.572,1.869,1.4515,1.4895,1.447,1.04,1.4395,1.002,0.527,-0.1185,-0.0515
0.4655,2.1625,1.697,-1.314,-0.616,1.93,1.4625,1.5085,1.4565,1.0455,1.4465,1.0055,0.526,-0.0615,-0.076
0.444,2.1995,1.756,-1.3215,-0.656,1.9775,1.463,1.4895,1.431,1.0315,1.443,1.004,0.5185,-0.0195,-0.0855
0.4325,2.2275,1.795,-1.33,-0.6805,2.011,1.4565,1.4595,1.394,1.007,1.436,1.0045,0.5135,0.0105,-0.085
0.428,2.25,1.822,-1.339,-0.6965,2.036,1.4485,1.4275,1.3505,0.9765,1.4255,1.0035,0.508,0.039,-0.079
0.4235,2.2695,1.846,-1.3465,-0.7105,2.0575,1.4375,1.386,1.294,0.9325,1.405,0.9985,0.4995,0.0595,-0.0645
0.4175,2.2975,1.88,-1.3575,-0.731,2.0885,1.441,1.3545,1.2475,0.893,1.389,0.998,0.492,0.0855,-0.063
0.4025,2.321,1.9185,-1.362,-0.7575,2.12,1.443,1.3065,1.191,0.8615,1.384,1.0035,0.4865,0.1145,-0.065
0.3965,2.337,1.9405,-1.3665,-0.7715,2.1385,1.438,1.2575,1.1345,0.831,1.3815,1.013,0.488,0.1395,-0.06
0.3985,2.3735,1.975,-1.386,-0.7875,2.174,1.4235,1.1975,1.0695,0.791,1.3775,1.0275,0.4955,0.173,-0.0485
0.394,2.393,1.9985,-1.3935,-0.8015,2.1955,1.3935,1.077,0.949,0.7225,1.361,1.0395,0.4955,0.1955,-0.014
0.402,2.431,2.029,-1.4165,-0.813,2.23,1.332,0.912,0.7975,0.6395,1.3415,1.0515,0.501,0.2315,0.0365
0.413,2.476,2.063,-1.4445,-0.8245,2.2695,1.2695,0.749,0.65,0.563,1.326,1.0645,0.5085,0.263,0.089
0.432,2.446,2.014,-1.439,-0.791,2.23,1.243,0.6395,0.542,0.507,1.329,1.099,0.5215,0.2385,0.1425
0.4675,2.433,1.966,-1.4505,-0.749,2.1995,1.2015,0.5385,0.4395,0.452,1.3405,1.1495,0.5555,0.2235,0.2055
0.5075,2.457,1.9495,-1.4825,-0.7205,2.203,1.1285,0.388,0.3005,0.3835,1.3425,1.195,0.5945,0.229,0.2715
0.555,2.486,1.931,-1.5205,-0.6875,2.2085,1.038,0.1975,0.1245,0.281,1.3305,1.238,0.6315,0.246,0.3515
0.609,2.507,1.898,-1.558,-0.6445,2.2025,0.9425,0.005,-0.0585,0.17,1.317,1.2875,0.674,0.249,0.4535
0.6665,2.495,1.8285,-1.581,-0.581,2.162,0.868,-0.155,-0.215,0.074,1.3055,1.3365,0.7125,0.222,0.545
0.7325,2.4915,1.7595,-1.612,-0.5135,2.1255,0.792,-0.3105,-0.3685,-0.0265,1.292,1.3895,0.7555,0.2085,0.636
0.821,2.514,1.693,-1.6675,-0.436,2.1035,0.6855,-0.4865,-0.527,-0.1195,1.2945,1.4625,0.8255,0.2015,0.737
0.9185,2.523,1.605,-1.721,-0.343,2.0635,0.573,-0.6715,-0.696,-0.22,1.291,1.529,0.8965,0.181,0.844
1.01,2.507,1.4975,-1.7585,-0.2435,2.002,0.483,-0.831,-0.841,-0.2995,1.297,1.599,0.9655,0.148,0.94
1.1005,2.521,1.421,-1.811,-0.16,1.971,0.3945,-0.9645,-0.95,-0.3415,1.336,1.691,1.054,0.1405,1.014
1.2025,2.534,1.332,-1.868,-0.0645,1.9325,0.2955,-1.0885,-1.0465,-0.374,1.383,1.791,1.1525,0.1275,1.092
1.323,2.5325,1.21,-1.928,0.0565,1.871,0.1995,-1.188,-1.117,-0.391,1.4345,1.897,1.26,0.098,1.1685
1.443,2.5305,1.0875,-1.9865,0.178,1.809,0.113,-1.2685,-1.169,-0.4005,1.4805,1.994,1.3615,0.0725,1.237
1.544,2.512,0.969,-2.028,0.2875,1.7405,0.034,-1.3575,-1.2355,-0.437,1.486,2.043,1.42,0.0365,1.304
1.6175,2.498,0.881,-2.058,0.3685,1.69,-0.0335,-1.44,-1.313,-0.506,1.4345,2.029,1.4295,0.0045,1.3695
1.6755,2.4455,0.7705,-2.0605,0.4525,1.6085,-0.076,-1.4905,-1.382,-0.592,1.3465,1.9745,1.4,-0.057,1.4385
1.722,2.3855,0.664,-2.054,0.5295,1.525,-0.1045,-1.535,-1.439,-0.6695,1.2515,1.899,1.353,-0.127,1.4895
1.7605,2.2845,0.5245,-2.0225,0.618,1.4045,-0.1095,-1.5555,-1.477,-0.747,1.1255,1.7735,1.268,-0.2385,1.521
1.7865,2.1545,0.368,-1.9705,0.7095,1.2615,-0.102,-1.5605,-1.5155,-0.8485,0.9515,1.588,1.1295,-0.3675,1.559
1.8135,2.0305,0.2175,-1.922,0.798,1.1245,-0.093,-1.5475,-1.5285,-0.9215,0.806,1.4205,1.0125,-0.4985,1.5875
1.8485,1.913,0.0645,-1.8805,0.892,0.989,-0.0855,-1.5085,-1.5095,-0.954,0.707,1.2945,0.9335,-0.631,1.606
1.8745,1.851,-0.0235,-1.8625,0.9495,0.914,-0.0815,-1.456,-1.471,-0.966,0.624,1.18,0.8655,-0.7015,1.61
1.8975,1.784,-0.114,-1.8405,1.006,0.835,-0.0625,-1.3825,-1.4105,-0.9635,0.556,1.0795,0.8095,-0.7755,1.593
1.9065,1.705,-0.2015,-1.8055,1.054,0.752,-0.0225,-1.2975,-1.344,-0.9685,0.467,0.9525,0.72,-0.8565,1.5725
1.902,1.6365,-0.2655,-1.769,1.084,0.6855,0.0195,-1.221,-1.2915,-0.9865,0.3655,0.813,0.616,-0.9235,1.5515
1.904,1.5745,-0.33,-1.739,1.117,0.622,0.0495,-1.15,-1.243,-1.0015,0.2805,0.69,0.5325,-0.9915,1.531
1.885,1.5135,-0.3715,-1.699,1.1285,0.571,0.0865,-1.072,-1.186,-1.0085,0.1945,0.558,0.439,-1.054,1.5105
1.8645,1.4585,-0.4065,-1.6615,1.136,0.526,0.122,-0.9945,-1.1285,-1.0065,0.131,0.457,0.367,-1.107,1.49
1.873,1.374,-0.499,-1.623,1.186,0.4375,0.1605,-0.8915,-1.0405,-0.972,0.107,0.398,0.3345,-1.199,1.4615
1.8755,1.269,-0.6065,-1.572,1.2415,0.331,0.211,-0.772,-0.9385,-0.9255,0.088,0.3405,0.3015,-1.3115,1.4295
1.8835,1.194,-0.6895,-1.5385,1.287,0.2525,0.253,-0.661,-0.844,-0.8845,0.074,0.29,0.275,-1.3905,1.3985
1.8815,1.141,-0.7405,-1.511,1.311,0.2005,0.284,-0.572,-0.771,-0.8555,0.056,0.2425,0.2455,-1.449,1.3765
1.8635,1.106,-0.7575,-1.4845,1.3105,0.1745,0.317,-0.4905,-0.7095,-0.838,0.0305,0.1915,0.21,-1.49,1.358
1.8455,1.0765,-0.769,-1.4605,1.3075,0.1535,0.3485,-0.412,-0.6465,-0.8135,0.016,0.1505,0.183,-1.5155,1.3315
1.8195,1.0355,-0.784,-1.4275,1.302,0.1255,0.3885,-0.3415,-0.5915,-0.7955,-0.0005,0.1125,0.149,-1.548,1.306
1.784,1.017,-0.767,-1.4,1.2755,0.125,0.4315,-0.273,-0.546,-0.786,-0.024,0.066,0.1095,-1.5705,1.276
1.726,1.0295,-0.6965,-1.3775,1.2115,0.1665,0.471,-0.214,-0.5065,-0.7775,-0.049,0.013,0.066,-1.5625,1.238
1.683,1.0205,-0.662,-1.3515,1.1725,0.1795,0.5125,-0.1525,-0.4585,-0.76,-0.062,-0.024,0.033,-1.5625,1.2035
1.643,0.999,-0.644,-1.3205,1.144,0.1775,0.553,-0.1055,-0.4245,-0.7455,-0.07,-0.049,0.0005,-1.566,1.1785
1.5955,0.9695,-0.626,-1.282,1.111,0.172,0.599,-0.059,-0.387,-0.7275,-0.0695,-0.067,-0.033,-1.5795,1.155
1.558,0.946,-0.612,-1.2515,1.085,0.167,0.637,-0.014,-0.3515,-0.7075,-0.0675,-0.083,-0.057,-1.5915,1.1295
1.5055,0.9545,-0.551,-1.23,1.0285,0.2015,0.668,0.013,-0.333,-0.702,-0.079,-0.1115,-0.0895,-1.5745,1.1055
1.4545,0.994,-0.46,-1.224,0.9575,0.267,0.6855,0.027,-0.325,-0.709,-0.0985,-0.149,-0.1175,-1.536,1.0825
1.413,1.022,-0.391,-1.2175,0.9025,0.3155,0.705,0.0445,-0.3165,-0.7095,-0.109,-0.171,-0.1375,-1.5105,1.0655
1.373,1.0045,-0.368,-1.1885,0.871,0.318,0.741,0.08,-0.2825,-0.6805,-0.091,-0.1645,-0.1495,-1.5105,1.045
1.338,1.0035,-0.3345,-1.1705,0.8365,0.3345,0.765,0.109,-0.254,-0.6565,-0.077,-0.1635,-0.1575,-1.5005,1.021
1.2875,1.0055,-0.282,-1.146,0.785,0.3615,0.7985,0.142,-0.223,-0.632,-0.0635,-0.1645,-0.1695,-1.4875,0.995
1.23,1.006,-0.224,-1.118,0.7275,0.391,0.831,0.1715,-0.1945,-0.6085,-0.0485,-0.164,-0.1805,-1.467,0.972
1.1885,1.0205,-0.168,-1.105,0.6785,0.426,0.8535,0.2015,-0.1595,-0.578,-0.0255,-0.1535,-0.1765,-1.4425,0.9435
1.152,1.029,-0.123,-1.091,0.638,0.453,0.887,0.2505,-0.108,-0.5325,0.0095,-0.134,-0.169,-1.427,0.907
1.12,1.051,-0.069,-1.086,0.595,0.491,0.915,0.2925,-0.0695,-0.5015,0.0305,-0.126,-0.1695,-1.406,0.8765
1.0965,1.0705,-0.026,-1.0835,0.5615,0.522,0.9405,0.335,-0.0225,-0.459,0.064,-0.107,-0.161,-1.3895,0.844
1.075,1.097,0.022,-1.086,0.5265,0.5595,0.9755,0.384,0.03,-0.41,0.1055,-0.082,-0.153,-1.373,0.8105
1.0445,1.1095,0.065,-1.0775,0.49,0.587,1.0085,0.434,0.0795,-0.3645,0.14,-0.0575,-0.1415,-1.3575,0.7725
1.008,1.0865,0.078,-1.0475,0.4655,0.5825,1.034,0.48,0.1295,-0.318,0.1775,-0.032,-0.125,-1.36,0.736
0.976,1.079,0.103,-1.028,0.4365,0.591,1.064,0.526,0.182,-0.2685,0.2185,-0.0045,-0.1095,-1.3585,0.697
0.9335,1.0925,0.159,-1.0135,0.3875,0.6255,1.1,0.5765,0.235,-0.218,0.26,0.024,-0.099,-1.339,0.6535
0.8885,1.1025,0.2135,-0.996,0.3375,0.658,1.129,0.616,0.276,-0.1805,0.291,0.0425,-0.0965,-1.3195,0.622
0.8455,1.117,0.2715,-0.9815,0.2875,0.694,1.1535,0.6465,0.309,-0.149,0.316,0.0565,-0.0965,-1.294,0.598
0.81,1.1265,0.3165,-0.9685,0.247,0.7215,1.1795,0.6795,0.3435,-0.116,0.344,0.0735,-0.096,-1.2755,0.575
0.788,1.159,0.371,-0.9735,0.2085,0.765,1.192,0.7035,0.375,-0.0855,0.369,0.0935,-0.0835,-1.248,0.55
0.7665,1.19,0.423,-0.9785,0.172,0.8065,1.2055,0.731,0.412,-0.047,0.407,0.125,-0.0615,-1.217,0.5235
0.7475,1.185,0.4375,-0.9665,0.1555,0.811,1.2275,0.7665,0.4555,0.001,0.4535,0.1635,-0.043,-1.203,0.4955
0.723,1.2255,0.5025,-0.9745,0.1105,0.864,1.237,0.781,0.4795,0.03,0.481,0.186,-0.0305,-1.161,0.479
0.705,1.2645,0.56,-0.985,0.0725,0.912,1.2455,0.799,0.5105,0.066,0.5185,0.2165,-0.012,-1.1215,0.4615
0.693,1.3015,0.6085,-0.9975,0.0425,0.955,1.2515,0.824,0.549,0.1125,0.5645,0.2595,0.0185,-1.078,0.4365
0.677,1.3365,0.6595,-1.007,0.009,0.998,1.2585,0.839,0.576,0.1435,0.5985,0.289,0.0375,-1.034,0.4215
0.6595,1.3595,0.7,-1.01,-0.02,1.03,1.2665,0.855,0.6005,0.173,0.628,0.313,0.049,-1.001,0.406
0.638,1.402,0.764,-1.0205,-0.0625,1.083,1.2715,0.87,0.6235,0.203,0.6585,0.3385,0.067,-0.9515,0.387
0.6195,1.434,0.8145,-1.027,-0.0975,1.124,1.278,0.882,0.643,0.227,0.6835,0.3595,0.08,-0.91,0.3725
0.5995,1.4605,0.861,-1.0305,-0.1305,1.161,1.287,0.8975,0.6645,0.2515,0.707,0.379,0.089,-0.8755,0.355
0.5785,1.484,0.9055,-1.031,-0.1635,1.1945,1.2985,0.9145,0.6885,0.2795,0.734,0.4,0.098,-0.8445,0.3385
0.563,1.5155,0.9525,-1.0395,-0.1945,1.234,1.3045,0.928,0.708,0.3015,0.756,0.42,0.11,-0.81,0.3235
0.5525,1.524,0.9715,-1.0385,-0.2095,1.248,1.315,0.9505,0.739,0.3365,0.7885,0.451,0.126,-0.7835,0.307
0.544,1.543,0.9995,-1.044,-0.2275,1.271,1.3245,0.9725,0.77,0.3745,0.8265,0.484,0.1435,-0.7525,0.29
0.5335,1.5835,1.05,-1.0585,-0.258,1.3165,1.328,0.988,0.7955,0.4035,0.858,0.5105,0.1625,-0.71,0.2715
0.518,1.6085,1.0905,-1.0635,-0.286,1.3495,1.337,1.01,0.825,0.439,0.8905,0.54,0.18,-0.6725,0.2545
0.507,1.6285,1.122,-1.068,-0.307,1.3755,1.3465,1.029,0.851,0.47,0.92,0.569,0.195,-0.6405,0.239
0.498,1.659,1.1605,-1.079,-0.331,1.41,1.347,1.039,0.8705,0.493,0.9445,0.591,0.2115,-0.6015,0.225
0.4895,1.693,1.2035,-1.0915,-0.357,1.4485,1.356,1.0615,0.9055,0.535,0.988,0.632,0.2365,-0.555,0.209
0.4795,1.712,1.2325,-1.096,-0.3765,1.4725,1.373,1.0955,0.9545,0.591,1.0465,0.6875,0.267,-0.512,0.1885
0.4655,1.7545,1.289,-1.11,-0.4115,1.5215,1.3805,1.1165,0.9885,0.6315,1.0875,0.7255,0.2905,-0.457,0.17
0.459,1.798,1.339,-1.128,-0.4395,1.5685,1.377,1.121,1.0005,0.6435,1.1005,0.7375,0.3035,-0.4125,0.159
0.4575,1.812,1.354,-1.1345,-0.448,1.583,1.3785,1.13,1.011,0.6535,1.1115,0.7455,0.3105,-0.3995,0.1525
0.459,1.798,1.3395,-1.1285,-0.44,1.569,1.39,1.147,1.032,0.675,1.1335,0.766,0.3185,-0.4065,0.1455
0.457,1.7985,1.3415,-1.1275,-0.442,1.57,1.3885,1.15,1.039,0.681,1.1395,0.7715,0.322,-0.404,0.1435
0.46,1.824,1.3635,-1.1415,-0.4515,1.5935,1.3815,1.144,1.0325,0.6765,1.1385,0.7675,0.3245,-0.388,0.142
0.464,1.8465,1.3825,-1.155,-0.459,1.6145,1.3735,1.136,1.027,0.6715,1.1335,0.763,0.33,-0.3735,0.143
0.46,1.853,1.393,-1.1565,-0.466,1.623,1.37,1.135,1.0255,0.6695,1.1295,0.76,0.329,-0.369,0.1455
0.4605,1.8495,1.3885,-1.1545,-0.4635,1.619,1.372,1.136,1.0275,0.6715,1.1335,0.7635,0.33,-0.3675,0.1445
0.461,1.855,1.3945,-1.158,-0.4665,1.6245,1.369,1.1355,1.028,0.672,1.134,0.7635,0.3325,-0.3615,0.143
0.457,1.855,1.3975,-1.1555,-0.47,1.6265,1.369,1.1375,1.028,0.672,1.134,0.764,0.3325,-0.362,0.144
0.456,1.85,1.3935,-1.1525,-0.468,1.6215,1.372,1.141,1.032,0.6775,1.1405,0.77,0.334,-0.3695,0.145
0.456,1.8445,1.3885,-1.1495,-0.466,1.616,1.3725,1.141,1.0335,0.6815,1.143,0.7695,0.335,-0.3705,0.1435
0.454,1.8495,1.3955,-1.1515,-0.4705,1.6225,1.371,1.139,1.0335,0.6795,1.1395,0.7665,0.334,-0.3645,0.14
0.4545,1.8555,1.401,-1.1545,-0.473,1.6285,1.369,1.142,1.0365,0.6825,1.1415,0.7705,0.336,-0.3605,0.1395
0.4525,1.856,1.404,-1.154,-0.4755,1.63,1.3655,1.142,1.036,0.684,1.144,0.7725,0.338,-0.3575,0.138
0.454,1.8515,1.3975,-1.1525,-0.4715,1.6245,1.372,1.1475,1.042,0.6895,1.1495,0.7765,0.3385,-0.36,0.136
0.452,1.84,1.388,-1.1455,-0.468,1.614,1.378,1.151,1.047,0.696,1.155,0.7805,0.339,-0.3625,0.1335
0.45,1.837,1.387,-1.143,-0.4685,1.612,1.3775,1.1535,1.0485,0.6975,1.158,0.7845,0.3405,-0.366,0.1315
0.453,1.842,1.389,-1.147,-0.468,1.6155,1.3755,1.1555,1.0545,0.7015,1.1605,0.7885,0.343,-0.3615,0.133
0.4495,1.8495,1.4,-1.1495,-0.475,1.625,1.374,1.154,1.0535,0.7015,1.16,0.7885,0.3425,-0.3545,0.1325
0.451,1.851,1.4,-1.1505,-0.4745,1.6255,1.3725,1.1525,1.052,0.7015,1.1595,0.7885,0.343,-0.3525,0.1305
0.454,1.8495,1.3955,-1.1515,-0.4705,1.6225,1.376,1.1585,1.0585,0.7075,1.165,0.7945,0.3465,-0.3535,0.1305
0.4535,1.846,1.3925,-1.1495,-0.4695,1.619,1.383,1.1645,1.064,0.7125,1.1695,0.7995,0.3465,-0.36,0.1305
0.4525,1.8485,1.396,-1.1505,-0.4715,1.6225,1.3795,1.162,1.0625,0.712,1.1695,0.7975,0.3475,-0.3575,0.1295
0.4505,1.8495,1.3985,-1.15,-0.4735,1.624,1.3805,1.1625,1.0635,0.7135,1.173,0.7995,0.3485,-0.354,0.1295
0.451,1.844,1.393,-1.147,-0.4705,1.6185,1.3825,1.1655,1.067,0.716,1.1765,0.805,0.3505,-0.357,0.129
0.449,1.8565,1.4075,-1.1525,-0.479,1.6325,1.3765,1.1625,1.064,0.712,1.1725,0.802,0.352,-0.3445,0.1295
0.447,1.874,1.4275,-1.16,-0.49,1.6505,1.3705,1.1565,1.059,0.706,1.1675,0.796,0.351,-0.332,0.129
0.447,1.8695,1.422,-1.158,-0.4875,1.646,1.371,1.157,1.0595,0.708,1.169,0.7975,0.3525,-0.337,0.1275
0.4475,1.859,1.4125,-1.153,-0.4825,1.636,1.375,1.159,1.0635,0.711,1.172,0.8025,0.353,-0.3415,0.1275
0.45,1.8635,1.4135,-1.1565,-0.4815,1.6385,1.378,1.1625,1.068,0.7155,1.1755,0.8065,0.3545,-0.3415,0.128
0.443,1.861,1.418,-1.152,-0.4875,1.64,1.3775,1.1675,1.0695,0.7185,1.176,0.806,0.3545,-0.339,0.1255
0.4375,1.863,1.4255,-1.15,-0.494,1.6445,1.3735,1.1655,1.0675,0.7135,1.172,0.8025,0.353,-0.3365,0.1245
0.438,1.8675,1.4295,-1.1525,-0.4955,1.6485,1.372,1.165,1.067,0.714,1.1725,0.802,0.3545,-0.3365,0.124
0.436,1.865,1.429,-1.15,-0.4965,1.647,1.373,1.1665,1.0715,0.718,1.175,0.803,0.354,-0.337,0.122
0.439,1.86,1.421,-1.149,-0.491,1.6405,1.3745,1.1695,1.0735,0.721,1.177,0.806,0.3535,-0.3435,0.1205
0.4385,1.8495,1.4105,-1.144,-0.4855,1.63,1.3755,1.172,1.074,0.724,1.1795,0.8085,0.3535,-0.349,0.118
0.436,1.85,1.414,-1.143,-0.489,1.632,1.3755,1.173,1.075,0.723,1.1785,0.8075,0.3535,-0.347,0.117
0.439,1.853,1.414,-1.1455,-0.487,1.6335,1.3765,1.174,1.0785,0.726,1.1795,0.809,0.3555,-0.347,0.1175
0.44,1.8495,1.4095,-1.1445,-0.4845,1.6295,1.3795,1.177,1.0825,0.7305,1.184,0.8135,0.3575,-0.348,0.1175
0.438,1.8525,1.4145,-1.145,-0.488,1.6335,1.3785,1.176,1.08,0.727,1.181,0.8125,0.3585,-0.342,0.117
0.4395,1.8535,1.414,-1.146,-0.487,1.634,1.38,1.1775,1.083,0.729,1.1825,0.813,0.358,-0.345,0.1185
0.4395,1.851,1.4115,-1.145,-0.4855,1.631,1.382,1.182,1.088,0.733,1.187,0.8165,0.359,-0.3495,0.12
0.44,1.8275,1.387,-1.1335,-0.4735,1.607,1.388,1.1905,1.097,0.741,1.195,0.825,0.36,-0.3635,0.1195
0.441,1.786,1.345,-1.1135,-0.452,1.5655,1.4,1.204,1.111,0.7555,1.208,0.838,0.36,-0.39,0.1195
0.44,1.803,1.363,-1.1215,-0.4615,1.583,1.3945,1.1995,1.105,0.7495,1.2015,0.832,0.3605,-0.376,0.119
0.44,1.8415,1.4015,-1.1405,-0.4805,1.6215,1.3835,1.189,1.096,0.7375,1.191,0.8205,0.3615,-0.3495,0.119
0.4385,1.8695,1.431,-1.154,-0.496,1.6505,1.373,1.18,1.086,0.729,1.1805,0.8105,0.3625,-0.3295,0.121
0.4355,1.9025,1.467,-1.169,-0.5155,1.685,1.361,1.17,1.074,0.716,1.1675,0.798,0.363,-0.307,0.119
0.436,1.899,1.463,-1.1675,-0.5135,1.681,1.3625,1.171,1.0775,0.717,1.1685,0.7985,0.3615,-0.307,0.1175
0.437,1.8835,1.447,-1.16,-0.505,1.665,1.369,1.18,1.087,0.727,1.1765,0.8065,0.362,-0.3195,0.118
0.437,1.881,1.444,-1.159,-0.5035,1.6625,1.367,1.18,1.0875,0.7255,1.174,0.8035,0.361,-0.321,0.1165
0.436,1.891,1.455,-1.1635,-0.509,1.673,1.362,1.1745,1.0825,0.723,1.17,0.7985,0.362,-0.309,0.116
0.4345,1.8915,1.457,-1.1625,-0.511,1.6745,1.364,1.179,1.0855,0.7275,1.173,0.8025,0.3645,-0.3105,0.115
0.4315,1.863,1.4315,-1.147,-0.5,1.647,1.3735,1.1875,1.096,0.738,1.1815,0.8115,0.3635,-0.3285,0.1135
0.4325,1.8455,1.4125,-1.1385,-0.4895,1.629,1.3805,1.196,1.106,0.748,1.1915,0.817,0.364,-0.3385,0.113
0.436,1.85,1.414,-1.1425,-0.489,1.632,1.377,1.1945,1.105,0.748,1.1885,0.8135,0.3635,-0.3385,0.1095
0.434,1.8555,1.422,-1.1445,-0.4935,1.639,1.3745,1.193,1.103,0.7455,1.185,0.8115,0.3625,-0.3355,0.109
0.4375,1.8615,1.424,-1.1495,-0.4925,1.6425,1.3755,1.1945,1.1055,0.7455,1.1845,0.811,0.362,-0.334,0.111
0.4415,1.861,1.4195,-1.151,-0.489,1.6405,1.376,1.1975,1.109,0.75,1.1885,0.814,0.3645,-0.3365,0.1105
0.438,1.852,1.414,-1.145,-0.4875,1.633,1.377,1.2005,1.111,0.7505,1.1915,0.818,0.3665,-0.3345,0.1095
0.4355,1.853,1.417,-1.144,-0.4905,1.6345,1.382,1.2025,1.114,0.7525,1.1905,0.8185,0.3665,-0.333,0.109
0.436,1.8485,1.4125,-1.142,-0.488,1.6305,1.388,1.209,1.122,0.7605,1.1985,0.8255,0.369,-0.34,0.1105
0.438,1.8405,1.4025,-1.139,-0.482,1.6215,1.389,1.2125,1.125,0.763,1.202,0.828,0.37,-0.3465,0.11
0.4415,1.8545,1.4135,-1.148,-0.486,1.634,1.385,1.2115,1.1215,0.762,1.1985,0.824,0.371,-0.3405,0.108
0.439,1.8685,1.4295,-1.1535,-0.495,1.649,1.3795,1.2075,1.119,0.7575,1.1945,0.821,0.373,-0.3285,0.1095
0.4365,1.8725,1.436,-1.154,-0.4995,1.654,1.3775,1.2075,1.119,0.758,1.194,0.8205,0.3745,-0.323,0.1105
0.4345,1.871,1.4365,-1.1525,-0.501,1.654,1.379,1.21,1.1225,0.7605,1.1965,0.821,0.3735,-0.3245,0.1085
0.4315,1.88,1.4485,-1.1555,-0.508,1.664,1.377,1.2085,1.1205,0.7585,1.1955,0.819,0.3745,-0.319,0.107
0.4345,1.886,1.4515,-1.16,-0.5085,1.669,1.3735,1.209,1.12,0.7585,1.195,0.8165,0.375,-0.3145,0.1055
0.4375,1.895,1.4575,-1.166,-0.51,1.676,1.372,1.21,1.1225,0.7615,1.1955,0.8165,0.3765,-0.3075,0.1055
0.4375,1.896,1.4585,-1.1665,-0.51,1.677,1.372,1.21,1.123,0.7635,1.197,0.817,0.378,-0.3085,0.1035
0.435,1.8585,1.423,-1.1465,-0.4935,1.641,1.381,1.22,1.135,0.775,1.207,0.824,0.3755,-0.3305,0.1025
0.4365,1.858,1.4215,-1.147,-0.492,1.64,1.381,1.2265,1.135,0.7785,1.211,0.8275,0.378,-0.3315,0.1025
0.436,1.8725,1.4365,-1.154,-0.5,1.6545,1.376,1.2235,1.126,0.7765,1.2095,0.825,0.3795,-0.321,0.099
0.4345,1.882,1.447,-1.158,-0.506,1.6645,1.3745,1.222,1.1215,0.775,1.207,0.8215,0.379,-0.3135,0.098
0.4365,1.881,1.444,-1.1585,-0.5035,1.6625,1.3755,1.224,1.119,0.775,1.207,0.821,0.38,-0.317,0.096
0.435,1.83,1.395,-1.132,-0.48,1.6125,1.392,1.2375,1.135,0.793,1.224,0.8365,0.3795,-0.3475,0.0925
0.436,1.8265,1.3905,-1.1315,-0.4765,1.6085,1.396,1.2425,1.1395,0.7965,1.227,0.839,0.3805,-0.351,0.093
0.437,1.843,1.406,-1.1395,-0.4845,1.6245,1.3905,1.241,1.1335,0.793,1.222,0.8335,0.3805,-0.34,0.093
0.436,1.836,1.4,-1.136,-0.4815,1.618,1.394,1.246,1.133,0.797,1.2245,0.8375,0.382,-0.342,0.0905
0.4365,1.85,1.4135,-1.143,-0.488,1.6315,1.392,1.2455,1.13,0.797,1.2215,0.835,0.3825,-0.336,0.0915
0.439,1.8485,1.4095,-1.1435,-0.485,1.629,1.3915,1.248,1.131,0.8,1.224,0.8375,0.3825,-0.3365,0.0925
0.4395,1.84,1.4005,-1.1395,-0.48,1.62,1.397,1.2525,1.136,0.8045,1.2285,0.84,0.3835,-0.3395,0.09
0.4395,1.8385,1.399,-1.1385,-0.4795,1.6185,1.398,1.2555,1.1405,0.808,1.23,0.8405,0.385,-0.341,0.091
0.4395,1.84,1.4,-1.1395,-0.48,1.62,1.3975,1.257,1.142,0.8075,1.2285,0.841,0.387,-0.3405,0.0915
0.4365,1.8425,1.4055,-1.1395,-0.484,1.624,1.395,1.2575,1.148,0.8075,1.228,0.8395,0.3865,-0.3365,0.0915
0.437,1.857,1.42,-1.1465,-0.491,1.6385,1.3895,1.2535,1.151,0.802,1.224,0.8335,0.386,-0.3255,0.0915
0.4345,1.8705,1.436,-1.152,-0.5005,1.653,1.3855,1.2525,1.1515,0.7995,1.217,0.8275,0.3845,-0.3145,0.0885
0.4335,1.8775,1.444,-1.155,-0.505,1.661,1.3805,1.253,1.1545,0.8005,1.2145,0.827,0.3855,-0.31,0.0855
0.435,1.8775,1.4425,-1.156,-0.5035,1.66,1.383,1.2555,1.1605,0.804,1.2185,0.827,0.3865,-0.3125,0.085
0.4325,1.8675,1.4345,-1.15,-0.5005,1.651,1.3855,1.259,1.1645,0.8075,1.221,0.8275,0.385,-0.317,0.0835
0.4315,1.8745,1.4425,-1.153,-0.505,1.6585,1.381,1.257,1.167,0.806,1.218,0.8255,0.3875,-0.3105,0.083
0.4305,1.855,1.424,-1.1425,-0.4965,1.6395,1.389,1.268,1.183,0.8175,1.229,0.8335,0.3875,-0.3235,0.08
0.43,1.833,1.403,-1.131,-0.486,1.618,1.3955,1.2785,1.195,0.8285,1.2385,0.84,0.3875,-0.3375,0.078
0.4335,1.859,1.4255,-1.146,-0.4955,1.6425,1.3875,1.2745,1.193,0.822,1.23,0.8315,0.389,-0.3225,0.0775
0.435,1.8865,1.4515,-1.1605,-0.508,1.669,1.379,1.267,1.188,0.8165,1.2245,0.824,0.3885,-0.306,0.075
0.431,1.8765,1.445,-1.1535,-0.5065,1.661,1.3795,1.269,1.193,0.8205,1.225,0.826,0.3895,-0.311,0.0725
0.4305,1.8615,1.431,-1.1455,-0.5,1.6465,1.3835,1.279,1.2025,0.8255,1.231,0.832,0.392,-0.32,0.0735
0.427,1.857,1.43,-1.142,-0.5015,1.6435,1.3845,1.2845,1.207,0.8305,1.234,0.834,0.393,-0.3185,0.073
0.419,1.8465,1.4275,-1.1325,-0.504,1.637,1.3845,1.2845,1.2085,0.832,1.2335,0.8315,0.393,-0.317,0.071
0.423,1.844,1.4215,-1.133,-0.499,1.6325,1.3875,1.29,1.217,0.8385,1.2395,0.8355,0.3945,-0.3215,0.072
0.429,1.8535,1.425,-1.141,-0.498,1.639,1.3915,1.2985,1.226,0.8445,1.2445,0.8385,0.3945,-0.322,0.07
0.437,1.8705,1.4335,-1.1535,-0.498,1.652,1.388,1.299,1.2265,0.8435,1.2435,0.8365,0.395,-0.3175,0.067
0.449,1.882,1.433,-1.1655,-0.4915,1.6575,1.3925,1.3075,1.2365,0.852,1.251,0.842,0.397,-0.3155,0.0655
0.447,1.885,1.4375,-1.166,-0.495,1.6615,1.3945,1.315,1.2415,0.8545,1.252,0.8425,0.397,-0.3145,0.065
0.434,1.872,1.4385,-1.1525,-0.502,1.655,1.3885,1.31,1.24,0.8525,1.2485,0.839,0.3995,-0.3175,0.0645
0.4245,1.861,1.4365,-1.1425,-0.506,1.649,1.3905,1.3115,1.2435,0.8545,1.2515,0.8385,0.4005,-0.318,0.0625
0.4245,1.862,1.4375,-1.1425,-0.5065,1.65,1.3905,1.3135,1.2475,0.8585,1.252,0.8375,0.398,-0.3145,0.059
0.428,1.8645,1.4365,-1.146,-0.504,1.6505,1.39,1.322,1.253,0.8655,1.257,0.84,0.4015,-0.314,0.0565
0.431,1.87,1.439,-1.15,-0.504,1.6545,1.3915,1.3305,1.259,0.87,1.2605,0.843,0.4035,-0.3165,0.057
0.4285,1.8705,1.442,-1.149,-0.5065,1.6565,1.389,1.331,1.261,0.871,1.2585,0.8395,0.4025,-0.313,0.055
0.427,1.8725,1.4455,-1.1495,-0.509,1.659,1.387,1.332,1.262,0.8695,1.257,0.8365,0.4015,-0.309,0.051
0.4275,1.875,1.4475,-1.1505,-0.51,1.6615,1.3855,1.334,1.268,0.874,1.2585,0.8375,0.403,-0.307,0.0485
0.427,1.8725,1.4455,-1.149,-0.5095,1.659,1.387,1.3395,1.275,0.88,1.263,0.8405,0.4065,-0.3075,0.0465
0.4265,1.8625,1.436,-1.144,-0.5045,1.6495,1.3905,1.349,1.2835,0.8865,1.267,0.843,0.406,-0.3145,0.044
0.427,1.853,1.426,-1.1395,-0.4995,1.6395,1.3945,1.357,1.2925,0.894,1.273,0.846,0.406,-0.321,0.0415
0.428,1.844,1.4165,-1.1355,-0.494,1.63,1.3995,1.363,1.3,0.901,1.278,0.8495,0.4065,-0.325,0.04
0.429,1.851,1.4225,-1.14,-0.4965,1.637,1.3955,1.3635,1.3015,0.902,1.276,0.848,0.408,-0.319,0.041
0.4275,1.8655,1.438,-1.1465,-0.505,1.6515,1.393,1.3615,1.3035,0.902,1.274,0.8455,0.4105,-0.3125,0.04
0.4275,1.867,1.44,-1.147,-0.506,1.6535,1.3915,1.3655,1.3075,0.9045,1.2775,0.846,0.414,-0.3075,0.0355
0.4305,1.8685,1.438,-1.1495,-0.5035,1.6535,1.395,1.376,1.317,0.9115,1.284,0.851,0.416,-0.308,0.0345
0.4305,1.8625,1.432,-1.1465,-0.5005,1.6475,1.402,1.3855,1.328,0.922,1.2905,0.8555,0.417,-0.3135,0.0325
0.43,1.8565,1.4265,-1.143,-0.498,1.6415,1.405,1.3925,1.3355,0.927,1.2965,0.8595,0.4205,-0.3155,0.031
0.43,1.8595,1.4295,-1.1445,-0.4995,1.645,1.405,1.3985,1.3415,0.9325,1.2985,0.8595,0.421,-0.315,0.0305
0.4285,1.8695,1.441,-1.1485,-0.506,1.655,1.402,1.4025,1.346,0.9355,1.2985,0.8565,0.422,-0.306,0.0285
0.4265,1.884,1.4575,-1.155,-0.5155,1.671,1.3985,1.401,1.345,0.934,1.2955,0.8525,0.421,-0.2945,0.0255
0.426,1.898,1.472,-1.162,-0.5225,1.685,1.3935,1.3995,1.346,0.934,1.2935,0.8495,0.422,-0.286,0.023
0.4235,1.884,1.4605,-1.1535,-0.518,1.672,1.399,1.411,1.358,0.943,1.3015,0.8565,0.426,-0.2935,0.0215
0.423,1.8725,1.45,-1.147,-0.5135,1.661,1.402,1.4195,1.3665,0.951,1.307,0.8605,0.4265,-0.299,0.018
0.4225,1.8615,1.439,-1.1415,-0.508,1.65,1.408,1.431,1.378,0.9595,1.3155,0.866,0.4265,-0.309,0.0165
0.423,1.854,1.431,-1.138,-0.5035,1.6425,1.416,1.439,1.386,0.9665,1.3195,0.8695,0.4275,-0.3135,0.0135
0.4225,1.878,1.456,-1.15,-0.5165,1.667,1.4075,1.4345,1.3835,0.9645,1.3135,0.8635,0.429,-0.294,0.0095
0.4195,1.8885,1.4695,-1.154,-0.525,1.679,1.405,1.4395,1.3865,0.9665,1.313,0.86,0.4295,-0.2845,0.006
0.4215,1.8805,1.459,-1.151,-0.5185,1.67,1.4075,1.4455,1.394,0.972,1.3185,0.8635,0.431,-0.288,0.003
0.423,1.8735,1.4505,-1.148,-0.5135,1.662,1.411,1.453,1.4035,0.9815,1.324,0.869,0.4335,-0.296,0.0
0.4235,1.8725,1.449,-1.1475,-0.5125,1.6605,1.414,1.46,1.412,0.9865,1.3255,0.8695,0.4325,-0.2965,-0.002
0.4225,1.863,1.441,-1.1425,-0.509,1.652,1.4165,1.4665,1.419,0.9925,1.3295,0.8735,0.433,-0.2965,-0.003
0.417,1.8585,1.441,-1.1375,-0.5115,1.65,1.4185,1.474,1.4275,0.998,1.334,0.8755,0.4345,-0.297,-0.0055
0.42,1.8595,1.4395,-1.1395,-0.5095,1.6495,1.419,1.4805,1.435,1.003,1.3355,0.876,0.4355,-0.2965,-0.006
0.421,1.853,1.432,-1.1365,-0.5055,1.6425,1.421,1.4885,1.4425,1.0105,1.338,0.878,0.4365,-0.298,-0.009
0.4195,1.844,1.4245,-1.1315,-0.5025,1.634,1.429,1.4995,1.455,1.022,1.347,0.883,0.437,-0.3085,-0.011
0.422,1.842,1.4205,-1.1315,-0.499,1.631,1.434,1.508,1.4635,1.0285,1.352,0.8865,0.4385,-0.313,-0.013
0.4215,1.8365,1.415,-1.1285,-0.4965,1.6255,1.4355,1.514,1.469,1.0315,1.354,0.8895,0.4405,-0.3145,-0.016
0.423,1.834,1.411,-1.1285,-0.494,1.6225,1.437,1.522,1.4765,1.039,1.359,0.8925,0.443,-0.3165,-0.0165
0.4215,1.871,1.4495,-1.146,-0.5135,1.66,1.425,1.5175,1.4725,1.034,1.3525,0.8815,0.445,-0.293,-0.019
0.4195,1.9045,1.485,-1.1615,-0.5325,1.6945,1.411,1.5095,1.4655,1.026,1.3415,0.8705,0.445,-0.271,-0.023
0.42,1.913,1.493,-1.166,-0.5365,1.703,1.4105,1.5135,1.47,1.029,1.341,0.8675,0.447,-0.2625,-0.025
0.419,1.9015,1.482,-1.16,-0.5315,1.692,1.4185,1.5235,1.4825,1.038,1.349,0.875,0.4505,-0.2695,-0.0295
0.42,1.893,1.473,-1.1565,-0.526,1.683,1.422,1.53,1.4895,1.044,1.354,0.88,0.4525,-0.274,-0.03
0.4195,1.9085,1.489,-1.164,-0.5345,1.6985,1.419,1.532,1.49,1.0475,1.355,0.8755,0.453,-0.263,-0.031
0.4195,1.9115,1.492,-1.1655,-0.536,1.702,1.416,1.5345,1.494,1.049,1.355,0.8745,0.4545,-0.2595,-0.0345
0.422,1.928,1.506,-1.175,-0.542,1.717,1.41,1.532,1.493,1.0465,1.3515,0.871,0.4595,-0.246,-0.0355
0.4195,1.915,1.4955,-1.167,-0.5375,1.7055,1.416,1.541,1.5025,1.056,1.3595,0.877,0.4605,-0.2535,-0.037
0.418,1.8875,1.4695,-1.1525,-0.5255,1.679,1.427,1.5575,1.517,1.0695,1.3695,0.8875,0.462,-0.269,-0.0375
0.4175,1.9065,1.4895,-1.162,-0.5355,1.698,1.421,1.556,1.517,1.071,1.3665,0.8835,0.4635,-0.254,-0.0405
0.4175,1.913,1.495,-1.165,-0.5385,1.704,1.4185,1.557,1.5195,1.073,1.367,0.881,0.4625,-0.25,-0.0425
0.422,1.893,1.471,-1.157,-0.5245,1.682,1.428,1.571,1.535,1.086,1.3755,0.8895,0.4645,-0.264,-0.0445
0.423,1.884,1.461,-1.1535,-0.519,1.6725,1.432,1.579,1.544,1.093,1.38,0.8935,0.466,-0.27,-0.047
0.4235,1.89,1.4665,-1.1565,-0.5215,1.6785,1.4265,1.571,1.542,1.09,1.3795,0.892,0.4655,-0.2665,-0.046
0.424,1.89,1.4655,-1.157,-0.5205,1.678,1.423,1.569,1.5435,1.0925,1.3795,0.891,0.4665,-0.266,-0.0485
0.4225,1.8945,1.472,-1.1585,-0.5245,1.6835,1.428,1.587,1.5525,1.101,1.385,0.895,0.469,-0.261,-0.051
0.424,1.9035,1.4795,-1.1635,-0.5275,1.6915,1.427,1.589,1.5545,1.105,1.387,0.894,0.4675,-0.2565,-0.0525
0.426,1.9295,1.503,-1.1775,-0.5385,1.716,1.417,1.5805,1.5475,1.0975,1.3795,0.885,0.467,-0.2395,-0.0535
0.426,1.9335,1.5075,-1.1795,-0.5405,1.7205,1.4205,1.591,1.554,1.102,1.383,0.8875,0.469,-0.234,-0.0555
0.426,1.908,1.482,-1.1665,-0.5275,1.695,1.4295,1.601,1.5675,1.1145,1.395,0.8975,0.471,-0.25,-0.0575
0.4235,1.9155,1.4925,-1.169,-0.5345,1.704,1.4275,1.6005,1.568,1.114,1.3935,0.895,0.47,-0.245,-0.058
0.423,1.917,1.494,-1.17,-0.535,1.7055,1.4265,1.602,1.568,1.1165,1.3935,0.8935,0.471,-0.246,-0.0585
0.4235,1.915,1.4915,-1.169,-0.534,1.703,1.4265,1.6045,1.5715,1.1165,1.395,0.894,0.4705,-0.243,-0.0595
0.4215,1.921,1.4995,-1.171,-0.539,1.7105,1.4265,1.605,1.574,1.1175,1.3955,0.8925,0.47,-0.233,-0.063
0.4255,1.922,1.497,-1.1735,-0.5355,1.7095,1.427,1.607,1.576,1.1225,1.3975,0.895,0.474,-0.2365,-0.063
0.426,1.936,1.51,-1.1805,-0.542,1.723,1.4195,1.602,1.5705,1.117,1.3925,0.889,0.4755,-0.2275,-0.0635
0.4245,1.9385,1.514,-1.1815,-0.5445,1.726,1.417,1.6025,1.5725,1.1195,1.3955,0.891,0.4795,-0.222,-0.0645
0.423,1.937,1.514,-1.18,-0.545,1.7255,1.418,1.6055,1.5785,1.126,1.3995,0.896,0.4805,-0.2215,-0.066
0.4235,1.936,1.5125,-1.1795,-0.5445,1.724,1.42,1.604,1.5815,1.13,1.402,0.8975,0.4815,-0.2205,-0.0665
0.4275,1.93,1.5025,-1.1785,-0.5375,1.716,1.4215,1.6085,1.5875,1.135,1.4075,0.901,0.482,-0.226,-0.067
0.4285,1.933,1.5045,-1.1805,-0.5375,1.7185,1.4195,1.61,1.5885,1.136,1.408,0.9005,0.48,-0.227,-0.071
0.4305,1.9385,1.508,-1.1845,-0.5385,1.7235,1.417,1.6085,1.5905,1.1365,1.4085,0.9025,0.483,-0.2205,-0.0695
0.4325,1.9325,1.5005,-1.1825,-0.5335,1.7165,1.418,1.61,1.5925,1.138,1.4105,0.9045,0.4845,-0.223,-0.0695
0.432,1.9305,1.4985,-1.181,-0.533,1.7145,1.4165,1.61,1.5935,1.141,1.412,0.907,0.485,-0.225,-0.071
0.4345,1.933,1.4985,-1.1835,-0.532,1.716,1.4145,1.607,1.594,1.141,1.4125,0.9075,0.487,-0.223,-0.0725
0.4365,1.931,1.4945,-1.184,-0.5285,1.713,1.4175,1.6075,1.594,1.143,1.414,0.909,0.4865,-0.2245,-0.072
0.437,1.915,1.478,-1.1755,-0.5205,1.6965,1.426,1.6175,1.603,1.152,1.423,0.9175,0.4875,-0.236,-0.07
0.4365,1.9235,1.487,-1.18,-0.525,1.705,1.4235,1.615,1.6,1.148,1.4195,0.9145,0.487,-0.23,-0.0705
0.4385,1.961,1.523,-1.2,-0.542,1.7425,1.408,1.601,1.5895,1.138,1.4095,0.905,0.4905,-0.2035,-0.068
0.441,1.9525,1.512,-1.1965,-0.535,1.7325,1.4075,1.6025,1.591,1.14,1.415,0.9095,0.4925,-0.2085,-0.0645
0.445,1.948,1.5035,-1.1965,-0.529,1.726,1.407,1.602,1.5915,1.14,1.4155,0.9105,0.4925,-0.2115,-0.065
0.446,1.9675,1.522,-1.2065,-0.538,1.7455,1.396,1.592,1.5835,1.134,1.4085,0.903,0.494,-0.1975,-0.0635
0.4455,1.95,1.505,-1.198,-0.5295,1.7275,1.398,1.597,1.587,1.136,1.414,0.9075,0.495,-0.207,-0.0635
0.45,1.95,1.5005,-1.2,-0.525,1.7255,1.397,1.5965,1.586,1.1385,1.416,0.91,0.4965,-0.2055,-0.0645
0.45,1.9925,1.543,-1.221,-0.5465,1.768,1.385,1.5805,1.5705,1.126,1.4035,0.8975,0.4955,-0.18,-0.0615
0.447,1.983,1.537,-1.215,-0.5445,1.76,1.385,1.579,1.57,1.125,1.405,0.8995,0.4965,-0.188,-0.062
0.4465,1.945,1.499,-1.196,-0.526,1.7225,1.3935,1.589,1.5785,1.1335,1.4165,0.9105,0.4985,-0.212,-0.0615
0.4485,1.9455,1.4975,-1.1965,-0.5245,1.7215,1.394,1.589,1.578,1.1345,1.4155,0.9115,0.498,-0.212,-0.062
0.45,1.956,1.5065,-1.203,-0.528,1.732,1.389,1.5795,1.571,1.1315,1.4125,0.9095,0.4985,-0.204,-0.0625
0.451,1.9535,1.503,-1.202,-0.5255,1.7285,1.3885,1.576,1.5705,1.132,1.415,0.912,0.4985,-0.2075,-0.0615
0.457,1.9705,1.514,-1.214,-0.528,1.7425,1.3805,1.5665,1.562,1.1255,1.4095,0.9075,0.5005,-0.199,-0.0625
0.4595,1.9585,1.499,-1.209,-0.5195,1.729,1.383,1.568,1.561,1.1275,1.4135,0.911,0.501,-0.208,-0.061
0.461,1.9135,1.453,-1.187,-0.4955,1.683,1.3965,1.5765,1.572,1.138,1.426,0.925,0.5,-0.236,-0.059
0.4655,1.9175,1.4525,-1.191,-0.493,1.685,1.39,1.568,1.564,1.132,1.421,0.9245,0.502,-0.232,-0.0565
0.4675,1.944,1.4775,-1.2055,-0.505,1.711,1.378,1.5545,1.5495,1.12,1.409,0.915,0.501,-0.212,-0.0555
0.47,1.9615,1.4925,-1.2155,-0.511,1.727,1.374,1.5435,1.5405,1.1125,1.4025,0.91,0.5,-0.2005,-0.0525
0.471,1.959,1.4885,-1.2155,-0.5085,1.7245,1.3745,1.5405,1.539,1.1115,1.4045,0.9125,0.5,-0.2075,-0.0505
0.476,1.956,1.4805,-1.2155,-0.502,1.7185,1.3695,1.5345,1.5315,1.106,1.402,0.9115,0.4995,-0.211,-0.0475
0.478,1.9565,1.479,-1.2175,-0.5,1.718,1.3665,1.527,1.5225,1.1005,1.398,0.911,0.499,-0.2085,-0.0455
0.478,1.952,1.4745,-1.215,-0.498,1.7135,1.365,1.5215,1.5175,1.0995,1.4,0.9115,0.4985,-0.214,-0.0445
0.4785,1.951,1.4725,-1.215,-0.4965,1.712,1.361,1.516,1.5105,1.097,1.4005,0.9165,0.504,-0.2095,-0.0405
0.479,1.9435,1.465,-1.211,-0.4925,1.7045,1.3595,1.5115,1.505,1.0955,1.4025,0.921,0.5055,-0.213,-0.0375
0.4775,1.9375,1.46,-1.207,-0.491,1.699,1.357,1.5035,1.497,1.0915,1.4015,0.9195,0.504,-0.216,-0.037
0.4735,1.948,1.475,-1.2105,-0.5005,1.7115,1.3465,1.4885,1.4825,1.079,1.3925,0.913,0.504,-0.205,-0.035
0.4735,1.9475,1.4745,-1.2105,-0.5005,1.7115,1.3405,1.477,1.475,1.0725,1.389,0.913,0.5045,-0.2075,-0.0315
0.479,1.9435,1.465,-1.211,-0.4925,1.7045,1.3395,1.4705,1.4695,1.071,1.389,0.917,0.508,-0.2075,-0.0285
0.4865,1.9585,1.473,-1.2225,-0.493,1.716,1.3295,1.455,1.456,1.062,1.3845,0.912,0.5085,-0.2005,-0.024
0.4975,1.9795,1.482,-1.2385,-0.492,1.731,1.324,1.444,1.4475,1.057,1.383,0.9145,0.5125,-0.197,-0.02
0.5125,1.991,1.479,-1.252,-0.483,1.735,1.3275,1.4405,1.443,1.0565,1.386,0.921,0.513,-0.1965,-0.018
0.5125,1.9765,1.4645,-1.2445,-0.4755,1.7205,1.327,1.436,1.438,1.055,1.3885,0.9235,0.5125,-0.2035,-0.0165
0.5025,1.95,1.4475,-1.226,-0.472,1.699,1.321,1.4255,1.428,1.0475,1.3855,0.9235,0.5135,-0.212,-0.0115
0.5005,1.943,1.443,-1.222,-0.4705,1.693,1.318,1.414,1.417,1.0425,1.3825,0.9235,0.512,-0.2195,-0.0085
0.51,1.946,1.4365,-1.228,-0.463,1.6915,1.314,1.406,1.408,1.039,1.383,0.9285,0.516,-0.2195,-0.004
0.5165,1.945,1.429,-1.2305,-0.456,1.6875,1.307,1.3935,1.396,1.029,1.3805,0.929,0.518,-0.2155,0.0005
0.517,1.958,1.4415,-1.2375,-0.462,1.7,1.3,1.38,1.3815,1.019,1.3735,0.9255,0.518,-0.207,0.001
0.522,1.9545,1.4335,-1.2385,-0.4555,1.6945,1.3005,1.373,1.375,1.018,1.375,0.9345,0.5205,-0.213,0.006
0.522,1.9445,1.423,-1.2335,-0.4505,1.684,1.3025,1.3655,1.3695,1.0155,1.3795,0.943,0.5235,-0.2245,0.012
0.5245,1.954,1.4295,-1.2395,-0.4525,1.692,1.295,1.3535,1.3545,1.004,1.373,0.94,0.526,-0.2185,0.017
0.528,1.9545,1.4275,-1.2415,-0.45,1.6915,1.29,1.342,1.3435,0.997,1.3715,0.9425,0.53,-0.217,0.022
0.5315,1.9605,1.4295,-1.246,-0.449,1.6955,1.2835,1.3295,1.3325,0.989,1.369,0.9455,0.5335,-0.2135,0.027
0.535,1.9645,1.43,-1.2495,-0.4475,1.6975,1.278,1.317,1.3185,0.98,1.364,0.944,0.534,-0.2095,0.03
0.5325,1.9585,1.4275,-1.2455,-0.4475,1.693,1.277,1.3075,1.307,0.9735,1.361,0.946,0.534,-0.2155,0.034
0.5365,1.953,1.4165,-1.2445,-0.4395,1.685,1.2735,1.2975,1.297,0.9665,1.359,0.9485,0.536,-0.2215,0.0385
0.5395,1.9405,1.4015,-1.24,-0.431,1.6715,1.273,1.291,1.289,0.9645,1.361,0.954,0.5385,-0.2285,0.043
0.5395,1.9465,1.407,-1.243,-0.4335,1.677,1.269,1.28,1.278,0.9565,1.3565,0.9545,0.5395,-0.2275,0.049
0.541,1.916,1.375,-1.2285,-0.4165,1.6455,1.2735,1.278,1.276,0.958,1.3645,0.9625,0.539,-0.249,0.0515
0.5435,1.8545,1.311,-1.199,-0.3835,1.583,1.288,1.286,1.2845,0.97,1.379,0.982,0.5395,-0.2875,0.053
0.5465,1.9025,1.3565,-1.2245,-0.4045,1.6295,1.2715,1.2605,1.259,0.948,1.3615,0.9705,0.542,-0.259,0.0565
0.549,1.9965,1.4485,-1.2725,-0.4495,1.7225,1.236,1.219,1.215,0.909,1.327,0.9385,0.542,-0.197,0.062
0.553,2.019,1.467,-1.286,-0.4565,1.743,1.2235,1.201,1.196,0.893,1.3145,0.9295,0.542,-0.181,0.067
0.5545,1.986,1.432,-1.27,-0.4385,1.709,1.233,1.202,1.1955,0.896,1.323,0.9405,0.542,-0.2035,0.07
0.556,1.962,1.4065,-1.259,-0.425,1.6845,1.237,1.2005,1.193,0.896,1.3255,0.947,0.5395,-0.2215,0.074
0.5575,1.957,1.4005,-1.2575,-0.421,1.679,1.2355,1.1925,1.1835,0.8895,1.3245,0.95,0.54,-0.226,0.081
0.5605,1.949,1.3895,-1.2545,-0.4145,1.6695,1.233,1.1835,1.175,0.883,1.3225,0.95,0.54,-0.2295,0.0855
0.559,1.947,1.3885,-1.253,-0.4145,1.668,1.23,1.176,1.167,0.876,1.3185,0.949,0.539,-0.231,0.086
0.562,1.945,1.3835,-1.2535,-0.4105,1.665,1.2315,1.1695,1.161,0.873,1.319,0.9525,0.5395,-0.235,0.0925
0.5675,1.9445,1.377,-1.256,-0.4045,1.661,1.2305,1.164,1.1535,0.869,1.3185,0.954,0.538,-0.2395,0.0965
0.5665,1.93,1.3635,-1.248,-0.398,1.6465,1.232,1.1605,1.1495,0.8665,1.319,0.958,0.5385,-0.249,0.1005
0.566,1.9245,1.3585,-1.2455,-0.396,1.6415,1.231,1.153,1.1435,0.863,1.317,0.959,0.539,-0.251,0.106
0.5645,1.9215,1.3575,-1.243,-0.3965,1.6395,1.2295,1.1475,1.1365,0.858,1.3165,0.959,0.5375,-0.256,0.107
0.5615,1.9415,1.38,-1.2515,-0.4085,1.6605,1.22,1.133,1.122,0.844,1.3065,0.952,0.537,-0.242,0.1105
0.5625,1.961,1.399,-1.262,-0.418,1.6805,1.2095,1.122,1.1085,0.831,1.2965,0.946,0.538,-0.2285,0.113
0.5605,1.937,1.3765,-1.2485,-0.408,1.657,1.2145,1.1205,1.107,0.8315,1.3015,0.9515,0.5365,-0.243,0.114
0.558,1.933,1.375,-1.2455,-0.408,1.654,1.2145,1.1145,1.0995,0.8255,1.298,0.9515,0.533,-0.2455,0.116
0.5595,1.94,1.3805,-1.2495,-0.41,1.6605,1.21,1.1085,1.091,0.818,1.2905,0.9465,0.5305,-0.243,0.1215
0.56,1.9475,1.3885,-1.2535,-0.414,1.668,1.203,1.098,1.079,0.8075,1.284,0.9405,0.5305,-0.237,0.123
0.56,1.944,1.3845,-1.252,-0.412,1.6645,1.2025,1.0935,1.0725,0.803,1.282,0.942,0.531,-0.2385,0.124
0.56,1.9385,1.3785,-1.249,-0.4095,1.659,1.205,1.089,1.068,0.801,1.2815,0.9415,0.53,-0.243,0.1275
0.561,1.938,1.3765,-1.2495,-0.4075,1.657,1.202,1.084,1.0625,0.797,1.279,0.9395,0.53,-0.247,0.1285
0.5615,1.9265,1.365,-1.244,-0.4015,1.6455,1.206,1.086,1.0625,0.798,1.2795,0.9435,0.5285,-0.257,0.1295
0.5615,1.9205,1.359,-1.2405,-0.3985,1.6395,1.2085,1.082,1.0595,0.795,1.2785,0.944,0.5275,-0.261,0.131
0.5615,1.919,1.3575,-1.24,-0.3975,1.638,1.2085,1.077,1.0525,0.79,1.2755,0.9415,0.526,-0.2625,0.133
0.5595,1.9245,1.3655,-1.242,-0.4025,1.645,1.207,1.0725,1.0445,0.784,1.272,0.937,0.5235,-0.261,0.136
0.557,1.901,1.344,-1.229,-0.393,1.6225,1.212,1.0725,1.0455,0.784,1.275,0.9415,0.522,-0.2715,0.1375
0.555,1.8795,1.3245,-1.217,-0.3845,1.602,1.216,1.074,1.044,0.783,1.276,0.9425,0.5205,-0.2815,0.138
0.5565,1.9045,1.348,-1.23,-0.3955,1.6265,1.2095,1.0665,1.033,0.7725,1.266,0.9345,0.518,-0.2705,0.1395
0.557,1.9155,1.3585,-1.236,-0.4005,1.637,1.205,1.0585,1.027,0.766,1.2605,0.929,0.5165,-0.265,0.142
0.5565,1.9135,1.357,-1.2345,-0.4,1.635,1.2045,1.056,1.0235,0.763,1.2585,0.929,0.517,-0.2645,0.145
0.556,1.9195,1.3635,-1.2375,-0.4035,1.6415,1.2025,1.0535,1.0185,0.757,1.2535,0.923,0.514,-0.265,0.1475
0.5535,1.92,1.3665,-1.2365,-0.406,1.643,1.2,1.0485,1.0125,0.752,1.249,0.9185,0.5125,-0.2645,0.148
0.5495,1.9175,1.368,-1.2335,-0.409,1.6425,1.2025,1.045,1.0105,0.7505,1.2475,0.9175,0.5085,-0.261,0.148
0.5475,1.9215,1.374,-1.234,-0.413,1.648,1.2015,1.043,1.0055,0.7465,1.243,0.9115,0.5045,-0.2575,0.151
0.547,1.9225,1.376,-1.2345,-0.414,1.649,1.202,1.0415,1.0015,0.7405,1.24,0.912,0.5045,-0.256,0.151
0.547,1.911,1.364,-1.2285,-0.4085,1.6375,1.2055,1.043,1.002,0.741,1.2425,0.914,0.503,-0.2645,0.15
0.546,1.9205,1.3745,-1.233,-0.414,1.6475,1.203,1.04,0.999,0.737,1.2375,0.9095,0.5015,-0.261,0.1525
0.5415,1.925,1.3835,-1.233,-0.4205,1.6545,1.2005,1.034,0.9935,0.729,1.2305,0.9035,0.4975,-0.2535,0.1535
0.539,1.9015,1.3625,-1.22,-0.4115,1.632,1.2055,1.037,0.9955,0.7345,1.235,0.906,0.495,-0.2685,0.1525
0.5375,1.9055,1.368,-1.2215,-0.415,1.6365,1.2055,1.035,0.992,0.7315,1.232,0.902,0.4915,-0.2685,0.1515
0.535,1.9115,1.376,-1.223,-0.42,1.6435,1.202,1.03,0.986,0.7245,1.225,0.896,0.488,-0.2665,0.15
0.5355,1.8975,1.3625,-1.2165,-0.413,1.63,1.209,1.0365,0.989,0.7275,1.2265,0.8975,0.4855,-0.278,0.15
0.537,1.891,1.3545,-1.214,-0.4085,1.6225,1.212,1.0395,0.991,0.7265,1.225,0.896,0.482,-0.281,0.149
0.536,1.8825,1.346,-1.209,-0.4045,1.614,1.213,1.036,0.991,0.7275,1.2245,0.8965,0.4785,-0.2885,0.149
0.536,1.884,1.348,-1.21,-0.4055,1.616,1.2115,1.032,0.9885,0.726,1.2235,0.896,0.4785,-0.2875,0.1515
0.534,1.876,1.342,-1.2045,-0.404,1.609,1.2105,1.032,0.986,0.723,1.2225,0.8955,0.4775,-0.2895,0.152
0.529,1.868,1.3395,-1.198,-0.405,1.604,1.21,1.031,0.9835,0.718,1.2175,0.8895,0.4735,-0.2885,0.1505
0.529,1.8745,1.345,-1.2015,-0.408,1.6095,1.2125,1.034,0.985,0.7195,1.217,0.8885,0.4715,-0.289,0.1505
0.5295,1.8675,1.338,-1.198,-0.404,1.6025,1.2175,1.04,0.989,0.722,1.221,0.8925,0.4695,-0.296,0.1515
0.527,1.867,1.34,-1.197,-0.4065,1.6035,1.2145,1.0365,0.986,0.717,1.216,0.8895,0.469,-0.293,0.152
0.5275,1.8695,1.3415,-1.198,-0.407,1.6055,1.2135,1.033,0.983,0.716,1.214,0.888,0.468,-0.291,0.153
0.526,1.868,1.342,-1.197,-0.4075,1.605,1.214,1.0345,0.9815,0.716,1.2145,0.8885,0.468,-0.292,0.1545
0.5225,1.8755,1.353,-1.1985,-0.415,1.614,1.2115,1.0315,0.9805,0.712,1.2115,0.887,0.468,-0.2895,0.1545
0.522,1.886,1.3635,-1.2035,-0.4205,1.625,1.2075,1.0265,0.977,0.706,1.2055,0.881,0.467,-0.2785,0.155
0.522,1.8805,1.3585,-1.201,-0.418,1.6195,1.21,1.027,0.9765,0.7075,1.206,0.8805,0.4665,-0.2775,0.155
0.5225,1.8765,1.3535,-1.199,-0.4155,1.615,1.21,1.0285,0.977,0.708,1.2055,0.8815,0.4655,-0.2815,0.1545
0.52,1.8765,1.3565,-1.198,-0.418,1.6165,1.2105,1.028,0.9765,0.7085,1.203,0.882,0.465,-0.2845,0.155
0.515,1.865,1.35,-1.19,-0.417,1.6075,1.211,1.025,0.975,0.7075,1.204,0.8825,0.463,-0.2905,0.154
0.514,1.8675,1.3535,-1.1905,-0.419,1.6105,1.2065,1.0225,0.9705,0.7045,1.2005,0.879,0.463,-0.287,0.1535
0.5125,1.8715,1.359,-1.1915,-0.423,1.615,1.2095,1.024,0.9715,0.706,1.2015,0.8795,0.4655,-0.285,0.153
0.5135,1.872,1.3585,-1.1925,-0.4225,1.615,1.209,1.0265,0.971,0.7055,1.2015,0.879,0.466,-0.282,0.1525
0.513,1.885,1.3715,-1.199,-0.429,1.628,1.205,1.023,0.967,0.701,1.1965,0.875,0.465,-0.273,0.152
0.511,1.897,1.386,-1.204,-0.437,1.6415,1.202,1.019,0.9615,0.6945,1.1885,0.8705,0.462,-0.268,0.1515
0.513,1.866,1.353,-1.189,-0.42,1.6095,1.211,1.029,0.9705,0.705,1.197,0.88,0.462,-0.2915,0.1525
0.515,1.8295,1.315,-1.172,-0.4,1.572,1.226,1.042,0.9845,0.719,1.2115,0.8935,0.463,-0.312,0.1545
0.5165,1.849,1.3325,-1.1825,-0.408,1.591,1.218,1.0335,0.9765,0.71,1.204,0.885,0.462,-0.299,0.154
0.513,1.8605,1.3475,-1.1865,-0.417,1.604,1.212,1.0245,0.968,0.7015,1.194,0.8735,0.459,-0.2875,0.151
0.513,1.8595,1.347,-1.186,-0.417,1.6035,1.2125,1.029,0.971,0.704,1.194,0.8765,0.4585,-0.2855,0.152
0.517,1.866,1.3485,-1.1915,-0.4155,1.607,1.2125,1.03,0.971,0.7035,1.194,0.8755,0.459,-0.286,0.155
0.5175,1.867,1.349,-1.192,-0.4155,1.608,1.2165,1.0295,0.97,0.7015,1.1915,0.8735,0.457,-0.2855,0.1535
0.516,1.8715,1.355,-1.1935,-0.419,1.6135,1.2155,1.0285,0.97,0.6995,1.192,0.874,0.456,-0.2885,0.152
0.513,1.8675,1.3545,-1.19,-0.4205,1.611,1.2165,1.027,0.969,0.698,1.1915,0.87,0.4535,-0.2915,0.1535
0.5115,1.864,1.3525,-1.1875,-0.42,1.6085,1.216,1.027,0.9695,0.6975,1.1905,0.87,0.4535,-0.289,0.1545
0.511,1.8685,1.357,-1.1895,-0.423,1.613,1.214,1.026,0.9675,0.694,1.1895,0.8695,0.4545,-0.2865,0.156
0.509,1.877,1.3675,-1.1925,-0.429,1.6225,1.211,1.0235,0.964,0.691,1.184,0.8655,0.4535,-0.279,0.1545
0.508,1.885,1.377,-1.1965,-0.434,1.631,1.21,1.021,0.9625,0.69,1.1815,0.8645,0.4535,-0.2725,0.1545
0.5085,1.888,1.3795,-1.198,-0.435,1.6335,1.211,1.0235,0.9645,0.692,1.184,0.8655,0.4535,-0.2745,0.156
0.5085,1.871,1.3625,-1.1895,-0.427,1.617,1.211,1.025,0.967,0.695,1.1855,0.868,0.4535,-0.2835,0.1525
0.506,1.866,1.36,-1.1855,-0.427,1.613,1.2135,1.0255,0.9665,0.696,1.1855,0.8685,0.455,-0.284,0.152
0.5035,1.8805,1.377,-1.192,-0.4365,1.629,1.21,1.0225,0.9635,0.696,1.184,0.864,0.4545,-0.274,0.1525
0.503,1.881,1.378,-1.1915,-0.4375,1.6295,1.207,1.02,0.9615,0.6955,1.1825,0.8625,0.453,-0.272,0.152
0.506,1.885,1.379,-1.195,-0.436,1.632,1.206,1.0185,0.962,0.6955,1.1825,0.8625,0.4535,-0.27,0.1515
0.505,1.8695,1.3645,-1.187,-0.4295,1.617,1.2125,1.025,0.967,0.7015,1.187,0.8665,0.4535,-0.2795,0.15
0.5065,1.85,1.3435,-1.178,-0.418,1.597,1.2185,1.033,0.975,0.708,1.193,0.875,0.4535,-0.292,0.15
0.5125,1.8605,1.3485,-1.186,-0.4175,1.6045,1.2155,1.0295,0.9715,0.7045,1.191,0.873,0.455,-0.284,0.152
0.5105,1.864,1.353,-1.187,-0.421,1.6085,1.2155,1.031,0.972,0.7065,1.192,0.8735,0.456,-0.2815,0.154
0.5085,1.86,1.3515,-1.184,-0.4215,1.6055,1.2125,1.028,0.9705,0.7045,1.191,0.872,0.455,-0.2825,0.15
0.5085,1.871,1.3625,-1.1895,-0.4265,1.617,1.2095,1.0235,0.9665,0.699,1.187,0.868,0.455,-0.2755,0.15
0.509,1.8705,1.3615,-1.1895,-0.426,1.616,1.214,1.028,0.9715,0.7045,1.1925,0.8725,0.456,-0.281,0.152
0.5065,1.8575,1.351,-1.182,-0.422,1.604,1.2185,1.03,0.9745,0.7085,1.1975,0.877,0.4575,-0.2885,0.1515
0.5015,1.858,1.3565,-1.1795,-0.4275,1.607,1.2175,1.03,0.9735,0.707,1.196,0.8785,0.4585,-0.2855,0.154
0.503,1.8785,1.3755,-1.1905,-0.436,1.627,1.2125,1.0235,0.9675,0.6985,1.1895,0.872,0.4585,-0.2725,0.1535
0.503,1.8785,1.3755,-1.1905,-0.436,1.627,1.211,1.0235,0.968,0.696,1.1905,0.871,0.4585,-0.272,0.154
0.5005,1.862,1.3615,-1.181,-0.43,1.6115,1.2145,1.026,0.971,0.702,1.1925,0.875,0.4585,-0.282,0.1545
0.5025,1.88,1.3775,-1.191,-0.437,1.6285,1.21,1.02,0.965,0.6955,1.1855,0.867,0.4575,-0.269,0.1515
0.5005,1.889,1.3885,-1.1945,-0.4435,1.6385,1.2065,1.019,0.962,0.693,1.183,0.8655,0.4575,-0.2645,0.151
0.5,1.8735,1.3735,-1.1865,-0.4365,1.6235,1.2115,1.0225,0.967,0.699,1.1875,0.872,0.4585,-0.277,0.153
0.498,1.8705,1.3725,-1.184,-0.437,1.6215,1.21,1.0215,0.965,0.697,1.1885,0.87,0.458,-0.2755,0.1535
0.495,1.8735,1.3785,-1.184,-0.4415,1.626,1.207,1.019,0.9635,0.6945,1.1855,0.8675,0.4585,-0.27,0.1515
0.4945,1.8775,1.3825,-1.186,-0.4435,1.63,1.207,1.0175,0.964,0.695,1.1855,0.865,0.4575,-0.27,0.1495
0.4945,1.882,1.3875,-1.188,-0.4465,1.6345,1.2075,1.018,0.9635,0.6945,1.1845,0.8635,0.457,-0.2685,0.15
0.4935,1.879,1.3855,-1.186,-0.4455,1.6325,1.209,1.0185,0.965,0.696,1.185,0.865,0.457,-0.2685,0.1485
0.4935,1.87,1.377,-1.1815,-0.4415,1.6235,1.211,1.0225,0.968,0.7015,1.188,0.8665,0.4565,-0.2735,0.148
0.4945,1.8635,1.369,-1.1785,-0.437,1.6165,1.214,1.0265,0.972,0.7045,1.1905,0.8715,0.458,-0.279,0.1485
0.4965,1.865,1.3685,-1.18,-0.436,1.6165,1.2125,1.0245,0.9695,0.704,1.191,0.871,0.458,-0.28,0.148
0.498,1.8655,1.3675,-1.182,-0.434,1.6165,1.2125,1.024,0.9705,0.7055,1.192,0.8705,0.459,-0.2795,0.149
0.495,1.8645,1.3695,-1.18,-0.437,1.617,1.211,1.021,0.9685,0.703,1.1905,0.8695,0.4585,-0.274,0.1475
0.4915,1.8415,1.35,-1.1665,-0.4285,1.5955,1.218,1.0275,0.975,0.7095,1.1945,0.878,0.4595,-0.2865,0.148
0.489,1.8215,1.3325,-1.155,-0.4215,1.577,1.224,1.032,0.9805,0.7165,1.2015,0.885,0.4615,-0.299,0.151
0.487,1.8365,1.3495,-1.1615,-0.431,1.593,1.2145,1.0235,0.97,0.7075,1.194,0.877,0.461,-0.285,0.151
0.489,1.8695,1.3805,-1.179,-0.4455,1.625,1.2045,1.0155,0.964,0.6975,1.1865,0.8685,0.463,-0.263,0.1535
0.494,1.894,1.3995,-1.194,-0.4525,1.647,1.1995,1.01,0.96,0.6955,1.1845,0.864,0.464,-0.249,0.1535
0.4985,1.892,1.3935,-1.195,-0.447,1.643,1.205,1.015,0.9645,0.7,1.189,0.8695,0.4645,-0.2545,0.1535
0.51,1.899,1.389,-1.2045,-0.439,1.644,1.2105,1.021,0.972,0.7055,1.1955,0.8775,0.4655,-0.2575,0.1535
0.5115,1.9025,1.391,-1.2065,-0.4395,1.6465,1.2115,1.021,0.972,0.7075,1.198,0.881,0.467,-0.255,0.152
0.495,1.884,1.389,-1.189,-0.4465,1.6365,1.208,1.0185,0.9695,0.7055,1.195,0.878,0.4665,-0.2585,0.1515
0.493,1.879,1.3855,-1.1855,-0.446,1.632,1.207,1.0175,0.9695,0.7065,1.1935,0.8775,0.4665,-0.2585,0.153
0.497,1.8695,1.3725,-1.183,-0.4375,1.621,1.21,1.0205,0.9725,0.708,1.197,0.8815,0.4675,-0.265,0.153
0.4915,1.8645,1.3735,-1.178,-0.4405,1.619,1.2095,1.02,0.9715,0.708,1.197,0.882,0.4655,-0.268,0.152
0.4895,1.8845,1.395,-1.1865,-0.4525,1.6395,1.2035,1.014,0.9645,0.7025,1.191,0.8755,0.4635,-0.254,0.1525
0.4915,1.886,1.3945,-1.1885,-0.4515,1.6405,1.201,1.0115,0.962,0.701,1.19,0.8725,0.463,-0.2485,0.152
0.49,1.8525,1.362,-1.171,-0.436,1.607,1.2125,1.021,0.971,0.712,1.201,0.884,0.463,-0.2715,0.152
0.4925,1.8375,1.3445,-1.1645,-0.4255,1.591,1.217,1.026,0.9775,0.716,1.2055,0.8885,0.4605,-0.2855,0.151
0.4955,1.873,1.3775,-1.184,-0.441,1.6255,1.2085,1.0165,0.97,0.709,1.197,0.8815,0.46,-0.262,0.15
0.496,1.9075,1.411,-1.2015,-0.4575,1.659,1.199,1.009,0.961,0.6995,1.188,0.871,0.4585,-0.2425,0.15
0.4955,1.9095,1.4135,-1.2025,-0.459,1.6615,1.194,1.005,0.9575,0.6965,1.1845,0.8665,0.457,-0.239,0.1485
0.4925,1.8535,1.3615,-1.173,-0.434,1.6075,1.21,1.019,0.9725,0.7125,1.2025,0.8855,0.4575,-0.27,0.1455
0.4915,1.823,1.3315,-1.157,-0.4195,1.577,1.219,1.029,0.982,0.7215,1.2125,0.8955,0.4575,-0.2895,0.1455
0.4915,1.8695,1.378,-1.18,-0.443,1.6235,1.2085,1.0155,0.9695,0.7105,1.1995,0.8815,0.457,-0.263,0.146
0.4915,1.8985,1.4065,-1.195,-0.457,1.6525,1.2,1.0055,0.9585,0.7005,1.1895,0.872,0.4555,-0.2455,0.1465
0.491,1.89,1.399,-1.1905,-0.4535,1.6445,1.197,1.0015,0.9575,0.7005,1.19,0.8745,0.4555,-0.2495,0.1485
0.488,1.8785,1.3905,-1.183,-0.451,1.634,1.202,1.0075,0.9635,0.7055,1.196,0.879,0.455,-0.2565,0.148
0.4905,1.88,1.3895,-1.185,-0.4495,1.635,1.2025,1.0065,0.961,0.7045,1.1945,0.878,0.455,-0.256,0.148
0.491,1.895,1.4045,-1.1925,-0.4565,1.65,1.1945,0.999,0.9555,0.6985,1.188,0.872,0.4545,-0.246,0.148
0.4845,1.8985,1.4135,-1.191,-0.4645,1.656,1.1955,1.004,0.9575,0.6995,1.188,0.871,0.454,-0.239,0.146
0.485,1.889,1.404,-1.187,-0.459,1.6465,1.1985,1.0085,0.961,0.7025,1.1915,0.875,0.455,-0.2445,0.147
0.487,1.8955,1.4085,-1.191,-0.4605,1.652,1.1955,1.0065,0.956,0.7,1.19,0.8745,0.457,-0.2455,0.1505
0.4845,1.8955,1.411,-1.19,-0.463,1.6535,1.193,1.004,0.947,0.698,1.1875,0.87,0.455,-0.2425,0.15
0.4845,1.8875,1.403,-1.186,-0.459,1.645,1.1915,1.0025,0.947,0.696,1.189,0.869,0.4545,-0.244,0.1485
0.484,1.8825,1.3985,-1.183,-0.457,1.6405,1.194,1.0015,0.947,0.699,1.1925,0.8725,0.4565,-0.247,0.149
0.487,1.8835,1.3965,-1.185,-0.4545,1.6395,1.1935,1.0025,0.9475,0.702,1.194,0.8735,0.4575,-0.249,0.1505
0.4875,1.884,1.397,-1.1855,-0.4545,1.6405,1.1905,1.0035,0.947,0.701,1.1935,0.874,0.457,-0.2495,0.1495
0.487,1.882,1.3955,-1.184,-0.454,1.639,1.1915,1.002,0.945,0.7,1.194,0.8745,0.458,-0.248,0.1495
0.4895,1.8895,1.4005,-1.189,-0.4555,1.645,1.187,0.999,0.9435,0.699,1.1935,0.8755,0.4585,-0.246,0.15
0.4905,1.898,1.408,-1.194,-0.4585,1.653,1.1835,0.995,0.9415,0.697,1.1895,0.872,0.458,-0.242,0.1505
0.492,1.8815,1.3895,-1.1865,-0.4485,1.6355,1.189,1.0005,0.95,0.7025,1.1955,0.877,0.458,-0.252,0.151
0.4885,1.864,1.376,-1.176,-0.4435,1.62,1.192,1.0035,0.957,0.707,1.2005,0.8825,0.4575,-0.2585,0.1505
0.486,1.868,1.382,-1.1765,-0.4475,1.625,1.192,1.001,0.9565,0.704,1.197,0.8795,0.4575,-0.2535,0.1525
0.4855,1.8805,1.395,-1.183,-0.4545,1.6375,1.1895,0.9995,0.952,0.701,1.195,0.878,0.4575,-0.248,0.1515
0.487,1.885,1.398,-1.1855,-0.455,1.641,1.189,0.998,0.951,0.7,1.195,0.877,0.4595,-0.246,0.152
0.486,1.8805,1.395,-1.183,-0.454,1.6375,1.19,0.9965,0.951,0.7,1.197,0.879,0.4595,-0.2485,0.153
0.484,1.893,1.409,-1.188,-0.462,1.651,1.185,0.992,0.9455,0.6965,1.194,0.8755,0.4595,-0.241,0.153
0.4855,1.899,1.4135,-1.192,-0.464,1.6565,1.1815,0.99,0.9435,0.696,1.1905,0.8755,0.463,-0.2375,0.154
0.4835,1.8945,1.411,-1.189,-0.4635,1.6525,1.183,0.991,0.946,0.696,1.1895,0.8775,0.461,-0.238,0.1565
0.484,1.887,1.4035,-1.1855,-0.4595,1.645,1.1855,0.991,0.946,0.6965,1.192,0.8775,0.4595,-0.2405,0.1555
0.4845,1.8825,1.398,-1.183,-0.4565,1.64,1.1865,0.9895,0.9455,0.697,1.194,0.8815,0.461,-0.243,0.1545
0.485,1.8815,1.397,-1.183,-0.4555,1.639,1.186,0.9925,0.947,0.6965,1.192,0.8805,0.46,-0.2455,0.156
0.484,1.886,1.4025,-1.185,-0.459,1.6445,1.183,0.989,0.9435,0.694,1.1885,0.877,0.4605,-0.2405,0.155
0.4825,1.888,1.4055,-1.185,-0.4615,1.647,1.1795,0.983,0.94,0.6915,1.186,0.875,0.462,-0.2375,0.156
0.4815,1.8665,1.385,-1.174,-0.4515,1.626,1.185,0.991,0.945,0.698,1.1925,0.8805,0.4615,-0.249,0.156
0.4795,1.8525,1.373,-1.166,-0.4465,1.6125,1.19,0.9965,0.95,0.7035,1.1985,0.885,0.4615,-0.256,0.1545
0.479,1.8575,1.3785,-1.168,-0.4495,1.618,1.186,0.9955,0.947,0.7005,1.1965,0.882,0.462,-0.2535,0.1545
0.482,1.882,1.4,-1.182,-0.4585,1.641,1.1785,0.9855,0.939,0.6935,1.1895,0.876,0.4635,-0.237,0.155
0.484,1.895,1.411,-1.1895,-0.463,1.653,1.174,0.9815,0.9365,0.6925,1.1875,0.874,0.4665,-0.2305,0.1555
0.4855,1.8895,1.404,-1.1875,-0.459,1.647,1.175,0.983,0.94,0.696,1.1915,0.877,0.468,-0.235,0.1565
0.4845,1.8815,1.397,-1.183,-0.456,1.6395,1.1775,0.985,0.9415,0.6975,1.191,0.8805,0.468,-0.2405,0.1585
0.4785,1.8765,1.398,-1.177,-0.4595,1.637,1.178,0.9845,0.9405,0.694,1.191,0.877,0.4645,-0.2425,0.1575
0.4805,1.8735,1.393,-1.1765,-0.4555,1.633,1.1755,0.982,0.938,0.6925,1.191,0.878,0.4655,-0.244,0.1585
0.482,1.8705,1.3885,-1.176,-0.4525,1.6295,1.177,0.9835,0.9385,0.6945,1.191,0.8795,0.4665,-0.2455,0.159
0.4815,1.879,1.3975,-1.18,-0.4575,1.638,1.177,0.9815,0.937,0.6925,1.189,0.8785,0.466,-0.2405,0.16
0.4835,1.8815,1.398,-1.1825,-0.457,1.64,1.1755,0.9835,0.936,0.6915,1.1875,0.88,0.4675,-0.241,0.163
0.4845,1.889,1.404,-1.1865,-0.4595,1.6465,1.172,0.9785,0.932,0.6865,1.1845,0.874,0.4665,-0.236,0.164
0.484,1.902,1.418,-1.1925,-0.467,1.66,1.1655,0.9695,0.9255,0.6805,1.178,0.8695,0.4665,-0.2295,0.1645
0.4805,1.9125,1.4315,-1.196,-0.4755,1.672,1.1605,0.967,0.923,0.6755,1.174,0.866,0.4675,-0.2195,0.165
0.4775,1.8885,1.4105,-1.183,-0.466,1.6495,1.1695,0.9765,0.929,0.684,1.1825,0.8735,0.466,-0.2305,0.163
0.478,1.8665,1.388,-1.172,-0.4545,1.6275,1.1765,0.9835,0.935,0.6905,1.188,0.8795,0.4645,-0.2455,0.1625
0.48,1.8765,1.3965,-1.178,-0.458,1.6365,1.1765,0.98,0.933,0.6875,1.185,0.876,0.464,-0.2445,0.164
0.479,1.877,1.398,-1.1775,-0.4595,1.6375,1.172,0.9765,0.9295,0.685,1.1825,0.8725,0.462,-0.2425,0.162
0.4785,1.8835,1.405,-1.1805,-0.463,1.644,1.1645,0.9705,0.9245,0.679,1.1775,0.868,0.462,-0.235,0.1615
0.4775,1.8815,1.404,-1.1795,-0.463,1.643,1.168,0.972,0.9265,0.682,1.1785,0.871,0.463,-0.2375,0.162
0.4775,1.877,1.3995,-1.177,-0.461,1.6385,1.1695,0.9735,0.926,0.6825,1.1795,0.872,0.463,-0.2355,0.162
0.4775,1.887,1.4095,-1.182,-0.466,1.6485,1.167,0.968,0.9215,0.6785,1.1745,0.868,0.4615,-0.23,0.161
0.4795,1.8875,1.408,-1.183,-0.464,1.6475,1.167,0.966,0.9205,0.679,1.174,0.867,0.461,-0.2315,0.16
0.4775,1.8785,1.4005,-1.1775,-0.4615,1.6395,1.1675,0.9695,0.923,0.682,1.177,0.8705,0.4615,-0.2375,0.1595
0.4745,1.8635,1.389,-1.1685,-0.457,1.626,1.1695,0.971,0.925,0.682,1.18,0.872,0.4615,-0.2495,0.161
0.4705,1.861,1.391,-1.1655,-0.46,1.626,1.168,0.968,0.9205,0.6795,1.1785,0.8695,0.463,-0.249,0.1615
0.468,1.876,1.408,-1.172,-0.4695,1.642,1.164,0.9645,0.916,0.676,1.1745,0.865,0.4615,-0.236,0.1595
0.4755,1.869,1.393,-1.172,-0.4585,1.631,1.1695,0.971,0.9225,0.682,1.1795,0.87,0.46,-0.2435,0.162
0.482,1.8575,1.3755,-1.1695,-0.4465,1.6165,1.1775,0.978,0.9275,0.687,1.186,0.878,0.4595,-0.2555,0.163
0.496,1.88,1.3835,-1.188,-0.4435,1.6315,1.1795,0.978,0.9285,0.686,1.188,0.8795,0.459,-0.247,0.162
0.5025,1.8935,1.391,-1.198,-0.444,1.6425,1.178,0.9755,0.927,0.6855,1.186,0.8785,0.4595,-0.2375,0.1635
0.4855,1.881,1.3955,-1.183,-0.455,1.638,1.171,0.969,0.9195,0.678,1.1785,0.8715,0.458,-0.237,0.1645
0.4775,1.8745,1.397,-1.176,-0.459,1.6355,1.168,0.965,0.9165,0.674,1.1745,0.868,0.4565,-0.2395,0.1655
0.48,1.869,1.389,-1.1745,-0.4545,1.629,1.172,0.968,0.918,0.677,1.1785,0.871,0.4555,-0.2435,0.167
0.478,1.877,1.399,-1.177,-0.46,1.638,1.1695,0.967,0.9165,0.675,1.175,0.8695,0.456,-0.2375,0.165
0.4765,1.8835,1.4065,-1.18,-0.4645,1.645,1.167,0.9625,0.9135,0.6705,1.1705,0.8655,0.454,-0.233,0.1655
0.476,1.885,1.409,-1.1805,-0.466,1.647,1.1665,0.962,0.912,0.669,1.1705,0.864,0.452,-0.2325,0.167
0.478,1.898,1.42,-1.188,-0.4705,1.659,1.1605,0.9575,0.9075,0.6635,1.165,0.8595,0.4535,-0.221,0.1655
0.4775,1.896,1.4185,-1.1865,-0.47,1.657,1.161,0.956,0.906,0.6625,1.1635,0.8595,0.453,-0.221,0.166
0.475,1.884,1.4085,-1.1795,-0.4665,1.6465,1.163,0.9595,0.9085,0.6655,1.166,0.862,0.451,-0.229,0.166
0.4725,1.8775,1.405,-1.1745,-0.466,1.6415,1.165,0.959,0.9085,0.6665,1.1675,0.863,0.451,-0.231,0.1665
0.4715,1.873,1.4015,-1.172,-0.4645,1.637,1.1655,0.9575,0.9075,0.665,1.1665,0.8615,0.448,-0.234,0.165
0.476,1.8595,1.3835,-1.168,-0.4535,1.6215,1.167,0.9585,0.9095,0.668,1.169,0.865,0.448,-0.2455,0.1645
0.4745,1.857,1.3825,-1.1655,-0.4535,1.6195,1.1675,0.959,0.909,0.67,1.17,0.867,0.4505,-0.248,0.165
0.476,1.8535,1.378,-1.1645,-0.451,1.616,1.1705,0.9625,0.912,0.6735,1.1735,0.8705,0.451,-0.2505,0.167
0.4845,1.8345,1.35,-1.1595,-0.4325,1.592,1.1785,0.97,0.9205,0.6805,1.1825,0.8785,0.4505,-0.268,0.167
0.482,1.8315,1.3495,-1.1565,-0.4335,1.5905,1.1775,0.967,0.9185,0.678,1.1805,0.8755,0.4485,-0.267,0.164
0.4775,1.8615,1.3835,-1.1695,-0.4525,1.6225,1.168,0.9565,0.91,0.67,1.1715,0.867,0.449,-0.2465,0.1645
0.477,1.8905,1.413,-1.1835,-0.4675,1.652,1.1595,0.947,0.8995,0.6585,1.16,0.858,0.4495,-0.228,0.165
0.477,1.8895,1.4125,-1.183,-0.4675,1.651,1.1585,0.9485,0.8995,0.658,1.161,0.858,0.4495,-0.225,0.169
0.476,1.892,1.4155,-1.184,-0.4695,1.6535,1.1575,0.948,0.899,0.6595,1.163,0.8585,0.4505,-0.228,0.172
0.474,1.8885,1.4145,-1.181,-0.47,1.6515,1.158,0.9455,0.8965,0.6575,1.1605,0.8575,0.4505,-0.2295,0.174
0.476,1.8895,1.4135,-1.1825,-0.4685,1.6515,1.158,0.9465,0.8965,0.656,1.1595,0.857,0.4505,-0.227,0.175
0.475,1.887,1.412,-1.1805,-0.4685,1.6495,1.1585,0.9475,0.898,0.6575,1.16,0.8585,0.4515,-0.229,0.1755
0.474,1.8685,1.3945,-1.171,-0.46,1.6315,1.1645,0.953,0.9025,0.6625,1.164,0.8635,0.4515,-0.2385,0.176
0.4745,1.864,1.39,-1.169,-0.4575,1.627,1.1665,0.953,0.9045,0.6625,1.1645,0.8635,0.45,-0.2425,0.175
0.475,1.8625,1.388,-1.1685,-0.456,1.625,1.1665,0.953,0.9055,0.665,1.1685,0.8665,0.4505,-0.247,0.1765
0.474,1.8785,1.4045,-1.176,-0.465,1.6415,1.1595,0.9445,0.8965,0.6565,1.162,0.859,0.45,-0.2355,0.176
0.47,1.892,1.422,-1.1805,-0.476,1.657,1.154,0.938,0.8895,0.65,1.153,0.849,0.4485,-0.222,0.176
0.4705,1.887,1.4165,-1.1785,-0.473,1.6515,1.155,0.939,0.8905,0.653,1.1555,0.8495,0.448,-0.225,0.176
0.4705,1.8865,1.4165,-1.178,-0.473,1.6515,1.156,0.9385,0.89,0.6525,1.1535,0.8505,0.448,-0.2265,0.1765
0.4695,1.877,1.4075,-1.173,-0.469,1.6425,1.1575,0.939,0.8925,0.6545,1.155,0.8525,0.447,-0.2325,0.177
0.4715,1.8695,1.3975,-1.17,-0.463,1.6335,1.1585,0.941,0.8945,0.6575,1.158,0.8525,0.444,-0.24,0.175
0.474,1.8635,1.39,-1.1685,-0.458,1.6265,1.162,0.9445,0.8955,0.6585,1.159,0.852,0.443,-0.2425,0.1755
0.4735,1.8575,1.384,-1.1655,-0.455,1.621,1.163,0.945,0.8965,0.6605,1.162,0.854,0.445,-0.2475,0.177
0.47,1.855,1.3855,-1.1625,-0.457,1.62,1.166,0.9475,0.898,0.663,1.1635,0.856,0.445,-0.2485,0.1775
0.4695,1.854,1.385,-1.1615,-0.4575,1.6195,1.164,0.945,0.896,0.6595,1.1605,0.8535,0.443,-0.244,0.176
0.472,1.8565,1.3845,-1.164,-0.456,1.6205,1.164,0.945,0.896,0.66,1.162,0.856,0.443,-0.245,0.1775
0.4705,1.8535,1.383,-1.162,-0.456,1.6185,1.1645,0.945,0.8955,0.6595,1.1615,0.8555,0.443,-0.246,0.1775
0.4685,1.853,1.3845,-1.1605,-0.458,1.619,1.161,0.9425,0.893,0.656,1.1585,0.851,0.442,-0.241,0.1785
0.4715,1.856,1.385,-1.1635,-0.4565,1.6205,1.1615,0.9425,0.893,0.655,1.159,0.854,0.443,-0.2415,0.1815
0.4695,1.8645,1.3955,-1.1665,-0.463,1.63,1.159,0.9405,0.8905,0.653,1.156,0.853,0.444,-0.2365,0.18
0.468,1.8605,1.393,-1.164,-0.4625,1.627,1.1615,0.945,0.8935,0.655,1.1585,0.854,0.444,-0.2375,0.1805
0.468,1.871,1.403,-1.1695,-0.467,1.637,1.157,0.939,0.8875,0.6505,1.1545,0.8495,0.4425,-0.2315,0.1815
0.4675,1.8755,1.408,-1.171,-0.47,1.642,1.1535,0.937,0.886,0.65,1.1535,0.8485,0.443,-0.228,0.179
0.468,1.868,1.4,-1.1675,-0.466,1.634,1.1565,0.939,0.889,0.6515,1.155,0.8505,0.4435,-0.231,0.1795
0.4695,1.8755,1.406,-1.1725,-0.468,1.641,1.1565,0.937,0.888,0.651,1.154,0.8505,0.4445,-0.2255,0.182
0.4705,1.875,1.4045,-1.1725,-0.4665,1.6395,1.1535,0.9345,0.8845,0.6485,1.1515,0.849,0.4455,-0.2275,0.18
0.468,1.879,1.411,-1.173,-0.4715,1.645,1.1495,0.93,0.8795,0.6435,1.145,0.8425,0.4435,-0.224,0.1795
0.466,1.8565,1.3905,-1.161,-0.462,1.6235,1.1595,0.9405,0.889,0.653,1.153,0.8515,0.4445,-0.237,0.179
0.4675,1.8695,1.402,-1.168,-0.467,1.636,1.155,0.934,0.8825,0.6475,1.149,0.847,0.4445,-0.228,0.18
0.47,1.894,1.4245,-1.1815,-0.477,1.659,1.146,0.9245,0.873,0.637,1.1395,0.8355,0.4425,-0.216,0.1815
0.466,1.8535,1.3875,-1.1595,-0.4605,1.6205,1.1585,0.938,0.885,0.6495,1.151,0.8475,0.441,-0.2445,0.1785
0.464,1.814,1.35,-1.139,-0.443,1.582,1.172,0.9545,0.9005,0.6645,1.165,0.8605,0.44,-0.2675,0.1795
0.468,1.8515,1.384,-1.1595,-0.4575,1.6175,1.158,0.9385,0.8865,0.6525,1.15,0.847,0.4415,-0.2435,0.182
0.4675,1.8925,1.425,-1.18,-0.4785,1.659,1.1425,0.924,0.871,0.6395,1.1365,0.8335,0.441,-0.2165,0.1825
0.466,1.845,1.379,-1.155,-0.4565,1.612,1.156,0.9405,0.8855,0.653,1.153,0.8475,0.441,-0.245,0.18
0.467,1.8265,1.359,-1.1465,-0.446,1.5925,1.1655,0.949,0.893,0.661,1.16,0.8565,0.443,-0.2585,0.181
0.4685,1.8465,1.378,-1.157,-0.4545,1.612,1.1605,0.942,0.8875,0.6565,1.1545,0.8505,0.4425,-0.2455,0.1805
0.466,1.858,1.392,-1.1615,-0.463,1.625,1.1535,0.934,0.881,0.651,1.15,0.845,0.443,-0.2305,0.1795
0.466,1.8605,1.3945,-1.163,-0.464,1.6275,1.1545,0.939,0.8825,0.652,1.1495,0.8465,0.443,-0.231,0.1815
0.4675,1.862,1.395,-1.1645,-0.4635,1.6285,1.154,0.938,0.881,0.6505,1.1495,0.8455,0.443,-0.234,0.1815
0.4665,1.8555,1.389,-1.1605,-0.461,1.622,1.156,0.9405,0.886,0.653,1.153,0.849,0.443,-0.2345,0.1815
0.4665,1.834,1.3675,-1.15,-0.45,1.6005,1.164,0.949,0.895,0.6615,1.1615,0.858,0.444,-0.246,0.1815
0.4675,1.858,1.391,-1.1625,-0.4615,1.6245,1.156,0.94,0.8865,0.654,1.153,0.85,0.445,-0.2305,0.1795
0.4685,1.901,1.432,-1.1845,-0.4815,1.6665,1.1445,0.9295,0.876,0.644,1.14,0.838,0.446,-0.2035,0.1775
0.473,1.913,1.44,-1.1925,-0.4835,1.6765,1.143,0.929,0.875,0.6435,1.1395,0.837,0.448,-0.196,0.1805
0.4725,1.906,1.433,-1.189,-0.48,1.6695,1.1445,0.9315,0.8785,0.6445,1.143,0.839,0.4495,-0.2015,0.179
0.474,1.9025,1.4285,-1.188,-0.477,1.6655,1.1445,0.9325,0.8805,0.6465,1.1445,0.841,0.4515,-0.201,0.177
0.476,1.902,1.426,-1.189,-0.4745,1.6635,1.1455,0.9335,0.882,0.649,1.146,0.8435,0.4515,-0.2005,0.177
0.4755,1.9025,1.427,-1.189,-0.4755,1.6645,1.1475,0.9355,0.8865,0.6525,1.1495,0.847,0.4535,-0.1995,0.1745
0.479,1.901,1.422,-1.19,-0.471,1.6615,1.148,0.942,0.8915,0.658,1.1535,0.851,0.456,-0.199,0.1755
0.4785,1.897,1.4185,-1.188,-0.4695,1.658,1.15,0.944,0.8935,0.6615,1.1565,0.8535,0.456,-0.2025,0.174
0.4825,1.9025,1.42,-1.192,-0.469,1.6615,1.1505,0.943,0.896,0.6645,1.16,0.8555,0.458,-0.2,0.1715
0.4875,1.9055,1.418,-1.196,-0.465,1.6615,1.153,0.951,0.9035,0.6715,1.167,0.8615,0.462,-0.2,0.169
0.4885,1.9,1.4115,-1.194,-0.4615,1.656,1.1575,0.9555,0.91,0.678,1.1715,0.8675,0.465,-0.203,0.1685
0.491,1.901,1.41,-1.1955,-0.4595,1.6555,1.155,0.956,0.9105,0.679,1.1725,0.8685,0.467,-0.2,0.167
0.4945,1.9075,1.413,-1.201,-0.459,1.6605,1.1535,0.9605,0.915,0.6825,1.1755,0.87,0.4705,-0.1985,0.167
0.5,1.909,1.4085,-1.2045,-0.454,1.659,1.1555,0.966,0.9205,0.6895,1.1825,0.876,0.475,-0.1985,0.1675
0.499,1.91,1.4105,-1.204,-0.4555,1.66,1.155,0.9655,0.921,0.69,1.1845,0.8755,0.477,-0.191,0.162
0.4985,1.914,1.4155,-1.206,-0.4585,1.6645,1.154,0.9665,0.9225,0.6905,1.1855,0.875,0.4785,-0.188,0.1605
0.5,1.9205,1.4205,-1.21,-0.46,1.6705,1.152,0.9675,0.925,0.6925,1.1865,0.8775,0.4805,-0.187,0.1605
0.5025,1.9305,1.428,-1.2165,-0.4625,1.6795,1.1485,0.967,0.9255,0.693,1.1885,0.8795,0.484,-0.18,0.1585
0.505,1.9395,1.4345,-1.222,-0.4645,1.687,1.149,0.9705,0.9275,0.696,1.192,0.882,0.4875,-0.172,0.1595
0.506,1.942,1.436,-1.224,-0.465,1.689,1.147,0.9725,0.931,0.699,1.1945,0.8845,0.4905,-0.169,0.1555
0.508,1.9355,1.4275,-1.2215,-0.4595,1.6815,1.1455,0.9745,0.934,0.7005,1.198,0.8885,0.4945,-0.173,0.1535
0.507,1.9315,1.4245,-1.2185,-0.459,1.678,1.1495,0.979,0.9375,0.706,1.202,0.892,0.4955,-0.176,0.1565
0.507,1.9285,1.4215,-1.2175,-0.457,1.675,1.15,0.9825,0.941,0.713,1.2085,0.8995,0.498,-0.1725,0.152
0.5015,1.9275,1.426,-1.2145,-0.462,1.677,1.1495,0.9805,0.94,0.714,1.2085,0.901,0.498,-0.168,0.151
0.4995,1.9475,1.448,-1.2235,-0.474,1.698,1.1425,0.9715,0.934,0.707,1.202,0.8925,0.495,-0.153,0.1515
0.503,1.993,1.491,-1.248,-0.494,1.7425,1.1275,0.959,0.9225,0.6955,1.189,0.8785,0.496,-0.1205,0.148
0.502,1.9885,1.487,-1.2455,-0.492,1.738,1.1295,0.963,0.9265,0.6975,1.191,0.8785,0.497,-0.1285,0.145
0.5065,1.935,1.4285,-1.2205,-0.461,1.682,1.1495,0.986,0.95,0.7175,1.211,0.898,0.499,-0.163,0.143
0.504,1.9225,1.4185,-1.213,-0.457,1.6705,1.155,0.9935,0.9555,0.723,1.214,0.9,0.5005,-0.1715,0.14
0.4985,1.91,1.411,-1.204,-0.456,1.6605,1.156,0.996,0.9565,0.7235,1.2145,0.8995,0.502,-0.181,0.1385
0.498,1.8985,1.4005,-1.198,-0.451,1.6495,1.157,1.001,0.9605,0.7265,1.2155,0.901,0.5045,-0.1855,0.1385
0.4985,1.896,1.3975,-1.197,-0.449,1.647,1.1605,1.007,0.965,0.7295,1.2175,0.903,0.505,-0.1905,0.1345
0.506,1.9015,1.3955,-1.2035,-0.4445,1.6485,1.165,1.014,0.972,0.7345,1.223,0.9075,0.5085,-0.1935,0.1325
0.5195,1.9285,1.4095,-1.224,-0.4445,1.669,1.16,1.0135,0.9715,0.736,1.22,0.907,0.512,-0.185,0.1325
0.5305,1.944,1.414,-1.237,-0.4415,1.679,1.156,1.012,0.972,0.736,1.221,0.908,0.513,-0.1835,0.13
0.522,1.9235,1.4015,-1.2225,-0.4395,1.6625,1.154,1.013,0.973,0.735,1.224,0.909,0.5125,-0.191,0.132
0.507,1.8615,1.3545,-1.184,-0.4235,1.608,1.163,1.025,0.986,0.747,1.236,0.9195,0.5105,-0.22,0.135
0.506,1.8725,1.3665,-1.189,-0.43,1.6195,1.156,1.02,0.982,0.744,1.232,0.9155,0.512,-0.213,0.1355
0.5105,1.9335,1.423,-1.222,-0.456,1.678,1.1365,1.002,0.9625,0.727,1.216,0.901,0.516,-0.176,0.136
0.5095,1.9785,1.47,-1.244,-0.48,1.7245,1.119,0.9825,0.945,0.7095,1.1985,0.884,0.514,-0.1465,0.1375
0.509,1.9825,1.474,-1.246,-0.482,1.7285,1.1115,0.9725,0.9395,0.706,1.196,0.883,0.513,-0.1445,0.1405
0.5145,1.949,1.435,-1.232,-0.46,1.692,1.1165,0.9785,0.9475,0.718,1.2115,0.899,0.518,-0.1665,0.148
0.515,1.9445,1.4295,-1.2295,-0.4575,1.687,1.109,0.9655,0.938,0.7145,1.2095,0.8985,0.517,-0.1645,0.1525
0.5095,1.939,1.4295,-1.224,-0.4595,1.6845,1.104,0.95,0.9245,0.7065,1.204,0.8965,0.5135,-0.163,0.1585
0.506,1.9515,1.446,-1.2285,-0.4695,1.699,1.1,0.938,0.9125,0.697,1.195,0.8885,0.509,-0.1525,0.163
0.505,1.948,1.4435,-1.2265,-0.469,1.696,1.0985,0.933,0.908,0.693,1.1925,0.887,0.5075,-0.15,0.1675
0.51,1.92,1.41,-1.2145,-0.45,1.665,1.1025,0.9345,0.9085,0.6945,1.197,0.8945,0.509,-0.174,0.1735
0.5145,1.913,1.399,-1.2135,-0.442,1.656,1.0995,0.9285,0.9035,0.6905,1.1925,0.8915,0.506,-0.185,0.1775
0.515,1.915,1.3995,-1.2145,-0.442,1.6575,1.0935,0.92,0.8975,0.684,1.187,0.886,0.504,-0.185,0.1825
0.5195,1.9165,1.397,-1.2175,-0.4385,1.6565,1.0875,0.9175,0.8945,0.683,1.1865,0.887,0.5085,-0.1875,0.189
0.52,1.912,1.392,-1.2155,-0.4355,1.652,1.0825,0.9165,0.8925,0.682,1.1855,0.888,0.511,-0.189,0.195
0.5225,1.9105,1.388,-1.216,-0.4325,1.649,1.0715,0.908,0.8875,0.6775,1.182,0.888,0.5155,-0.1905,0.2015
0.529,1.9075,1.3785,-1.218,-0.4245,1.643,1.067,0.9095,0.8885,0.681,1.186,0.8935,0.5215,-0.2015,0.204
0.536,1.905,1.3685,-1.22,-0.416,1.637,1.071,0.917,0.897,0.6885,1.195,0.899,0.5265,-0.207,0.2005
0.543,1.9055,1.3625,-1.224,-0.4095,1.634,1.07,0.9185,0.9015,0.6935,1.1995,0.902,0.5325,-0.2025,0.1965
0.5495,1.9105,1.3615,-1.2295,-0.4055,1.636,1.0645,0.9155,0.8985,0.692,1.199,0.8995,0.5365,-0.206,0.195
0.556,1.9265,1.3705,-1.241,-0.407,1.6485,1.06,0.9145,0.9,0.6915,1.1995,0.9,0.5435,-0.2035,0.193
0.555,1.929,1.374,-1.2415,-0.4095,1.6515,1.0615,0.923,0.906,0.696,1.205,0.902,0.5475,-0.1985,0.1895
0.5565,1.9285,1.3715,-1.242,-0.4075,1.65,1.0625,0.9235,0.9055,0.6975,1.2055,0.9025,0.5495,-0.2,0.1915
0.5565,1.9285,1.3725,-1.242,-0.4075,1.6505,1.0615,0.9205,0.904,0.695,1.2035,0.901,0.549,-0.196,0.194
0.554,1.921,1.3675,-1.2375,-0.4065,1.644,1.0605,0.9165,0.896,0.69,1.2,0.898,0.5445,-0.1995,0.198
0.5585,1.919,1.3605,-1.2385,-0.4005,1.64,1.0595,0.9125,0.892,0.6865,1.1955,0.897,0.544,-0.2045,0.203
0.5565,1.922,1.3655,-1.239,-0.4045,1.644,1.056,0.909,0.8885,0.6825,1.19,0.893,0.5405,-0.1945,0.2045
0.5555,1.9305,1.3755,-1.243,-0.4095,1.653,1.0515,0.9025,0.881,0.676,1.1855,0.8885,0.537,-0.1815,0.207
0.562,1.937,1.375,-1.2495,-0.406,1.656,1.0465,0.897,0.8775,0.6745,1.184,0.887,0.537,-0.1795,0.209
0.5645,1.939,1.3745,-1.2515,-0.4045,1.6565,1.0435,0.893,0.8735,0.673,1.1845,0.8885,0.539,-0.1805,0.213
0.5705,1.944,1.374,-1.257,-0.4015,1.6595,1.045,0.8935,0.876,0.676,1.19,0.893,0.5425,-0.175,0.211
0.575,1.945,1.3705,-1.26,-0.3975,1.658,1.0475,0.895,0.8825,0.6835,1.198,0.9,0.5455,-0.171,0.2075
0.576,1.9455,1.37,-1.261,-0.3965,1.658,1.051,0.8945,0.886,0.6885,1.2035,0.9065,0.548,-0.1655,0.206
0.579,1.955,1.3765,-1.267,-0.3985,1.666,1.0475,0.89,0.8795,0.6845,1.1995,0.903,0.5465,-0.1605,0.207
0.5795,1.9575,1.3785,-1.2685,-0.399,1.668,1.0465,0.8905,0.8775,0.6815,1.1995,0.903,0.5475,-0.159,0.207
0.576,1.955,1.3795,-1.2655,-0.4015,1.6675,1.0485,0.887,0.874,0.681,1.197,0.9015,0.5465,-0.157,0.205
0.572,1.948,1.3765,-1.26,-0.402,1.6625,1.054,0.887,0.873,0.68,1.1945,0.8995,0.542,-0.1625,0.2055
0.569,1.942,1.3735,-1.2555,-0.402,1.658,1.0625,0.893,0.876,0.6815,1.196,0.902,0.5395,-0.1695,0.2035
0.564,1.9485,1.385,-1.256,-0.4105,1.667,1.0605,0.8875,0.8675,0.6715,1.1845,0.891,0.534,-0.166,0.1985
0.5635,1.9315,1.368,-1.2475,-0.402,1.6495,1.0655,0.8905,0.8685,0.6695,1.1825,0.887,0.531,-0.1805,0.1925
0.56,1.9075,1.347,-1.2335,-0.3935,1.6275,1.0745,0.895,0.87,0.6715,1.184,0.888,0.5275,-0.2005,0.195
0.551,1.901,1.35,-1.226,-0.3995,1.6255,1.076,0.89,0.861,0.66,1.1735,0.876,0.5195,-0.2075,0.1965
0.549,1.889,1.3405,-1.219,-0.3955,1.6145,1.078,0.8885,0.8575,0.6535,1.166,0.868,0.513,-0.221,0.198
0.5495,1.877,1.3275,-1.213,-0.3885,1.602,1.0795,0.891,0.859,0.6525,1.1645,0.8685,0.5125,-0.234,0.196
0.5505,1.8715,1.321,-1.2105,-0.385,1.596,1.082,0.8925,0.859,0.651,1.1635,0.866,0.5115,-0.2445,0.189
0.5475,1.868,1.3205,-1.2075,-0.3865,1.594,1.086,0.897,0.859,0.6515,1.162,0.864,0.509,-0.252,0.188
0.5415,1.8675,1.326,-1.2045,-0.392,1.5965,1.085,0.8965,0.856,0.6475,1.158,0.8585,0.5055,-0.247,0.1865
0.5385,1.8705,1.332,-1.2045,-0.3965,1.6015,1.082,0.8875,0.849,0.6395,1.15,0.8515,0.501,-0.2425,0.187
0.535,1.8695,1.334,-1.202,-0.3995,1.602,1.0835,0.8855,0.8465,0.637,1.1475,0.8505,0.498,-0.2425,0.19
0.532,1.865,1.3335,-1.198,-0.4005,1.5995,1.083,0.8845,0.8425,0.636,1.146,0.8475,0.495,-0.238,0.193
0.533,1.855,1.3225,-1.1935,-0.3945,1.5885,1.083,0.885,0.843,0.637,1.146,0.8495,0.4945,-0.2445,0.1945
0.5355,1.843,1.308,-1.189,-0.386,1.5755,1.088,0.889,0.848,0.642,1.149,0.8555,0.495,-0.2545,0.193
0.536,1.835,1.2985,-1.1855,-0.381,1.5665,1.0895,0.888,0.849,0.6415,1.1505,0.8565,0.493,-0.2585,0.1945
0.538,1.838,1.3,-1.188,-0.3805,1.569,1.0865,0.883,0.8415,0.6345,1.1415,0.849,0.4895,-0.2605,0.199
0.541,1.852,1.3105,-1.196,-0.3845,1.581,1.08,0.873,0.83,0.623,1.1285,0.8365,0.485,-0.256,0.201
0.5395,1.848,1.308,-1.1935,-0.384,1.578,1.078,0.8735,0.827,0.6175,1.1245,0.8305,0.4825,-0.256,0.198
0.5405,1.822,1.2815,-1.181,-0.3705,1.552,1.087,0.884,0.8365,0.626,1.133,0.8385,0.4815,-0.272,0.1995
0.543,1.8085,1.2655,-1.1755,-0.361,1.537,1.0925,0.885,0.8355,0.6245,1.133,0.84,0.4785,-0.2865,0.2035
0.543,1.815,1.2715,-1.1785,-0.364,1.5435,1.0885,0.879,0.828,0.6165,1.1245,0.832,0.4745,-0.2855,0.203
0.5415,1.809,1.267,-1.175,-0.3625,1.538,1.088,0.8775,0.828,0.617,1.1245,0.8295,0.4715,-0.2865,0.2
0.5345,1.81,1.2755,-1.172,-0.37,1.5425,1.089,0.875,0.8225,0.6095,1.118,0.822,0.466,-0.2845,0.2015
0.5255,1.804,1.279,-1.1645,-0.3765,1.5415,1.0955,0.8755,0.824,0.609,1.1165,0.82,0.46,-0.286,0.202
0.5155,1.8055,1.29,-1.1605,-0.387,1.5475,1.1005,0.8765,0.8245,0.6105,1.1185,0.82,0.4565,-0.279,0.1985
0.5005,1.844,1.344,-1.172,-0.4215,1.594,1.0955,0.8695,0.817,0.6005,1.109,0.8095,0.4515,-0.2445,0.195
0.4825,1.8495,1.367,-1.166,-0.442,1.6085,1.1025,0.8715,0.816,0.596,1.102,0.801,0.443,-0.2355,0.193
0.466,1.826,1.36,-1.146,-0.4465,1.593,1.1175,0.8835,0.8245,0.6005,1.1035,0.8015,0.435,-0.2485,0.1925
0.452,1.8195,1.3675,-1.1355,-0.4575,1.5935,1.125,0.8885,0.827,0.6015,1.102,0.7985,0.4285,-0.246,0.1895
0.44,1.8175,1.3775,-1.1285,-0.4685,1.5975,1.1295,0.891,0.8255,0.6,1.099,0.7935,0.4245,-0.2425,0.184
0.434,1.8175,1.383,-1.1255,-0.474,1.6005,1.135,0.8955,0.8315,0.6065,1.103,0.797,0.4245,-0.239,0.1805
0.434,1.8195,1.3855,-1.1265,-0.4755,1.6025,1.1415,0.8995,0.838,0.6115,1.1065,0.8005,0.4235,-0.2385,0.1775
0.4335,1.8165,1.383,-1.1245,-0.4745,1.6,1.1415,0.9025,0.8405,0.6145,1.1095,0.802,0.423,-0.237,0.177
0.4335,1.8125,1.379,-1.123,-0.4725,1.5955,1.1405,0.901,0.8395,0.6155,1.11,0.803,0.423,-0.2405,0.177
0.4335,1.811,1.3775,-1.122,-0.4715,1.594,1.139,0.8985,0.8375,0.616,1.11,0.8035,0.4225,-0.242,0.176
0.433,1.812,1.3785,-1.1225,-0.4725,1.595,1.1385,0.8975,0.838,0.618,1.1105,0.8035,0.423,-0.238,0.1755
0.4345,1.813,1.378,-1.1235,-0.4715,1.5955,1.1385,0.8995,0.8365,0.617,1.1085,0.801,0.423,-0.2405,0.175
0.4315,1.813,1.3815,-1.122,-0.4745,1.597,1.137,0.901,0.836,0.614,1.107,0.8,0.424,-0.2355,0.175
0.4285,1.815,1.3865,-1.1215,-0.4785,1.6005,1.141,0.903,0.8375,0.613,1.105,0.799,0.4205,-0.2375,0.1735
0.43,1.809,1.3785,-1.1195,-0.474,1.594,1.1425,0.9045,0.839,0.618,1.11,0.8025,0.4215,-0.2435,0.174
0.4295,1.8075,1.3775,-1.119,-0.474,1.5925,1.139,0.9005,0.84,0.618,1.1125,0.8055,0.422,-0.2445,0.176
0.43,1.805,1.375,-1.118,-0.4725,1.59,1.1355,0.8975,0.838,0.615,1.1105,0.804,0.422,-0.2485,0.176
0.4295,1.8125,1.3825,-1.121,-0.4765,1.5975,1.13,0.8935,0.832,0.6105,1.109,0.8035,0.425,-0.24,0.18
0.4315,1.823,1.392,-1.127,-0.48,1.6075,1.1275,0.888,0.8275,0.6055,1.104,0.801,0.425,-0.237,0.1815
0.4355,1.82,1.384,-1.1275,-0.474,1.602,1.126,0.887,0.8275,0.606,1.1035,0.801,0.4255,-0.241,0.1805
0.433,1.8325,1.3995,-1.1325,-0.483,1.616,1.1215,0.883,0.8225,0.601,1.099,0.7965,0.4245,-0.2285,0.181
0.433,1.8295,1.3965,-1.131,-0.4815,1.613,1.122,0.884,0.8235,0.6025,1.0985,0.798,0.4245,-0.2325,0.182
0.434,1.821,1.387,-1.1275,-0.476,1.604,1.1245,0.888,0.827,0.608,1.1035,0.803,0.425,-0.242,0.1845
0.432,1.817,1.3845,-1.124,-0.476,1.6005,1.1235,0.888,0.825,0.6045,1.1025,0.8025,0.424,-0.242,0.182
0.4305,1.8145,1.384,-1.122,-0.4765,1.599,1.1215,0.883,0.8215,0.6015,1.098,0.799,0.4235,-0.24,0.183
0.4295,1.8135,1.3835,-1.1215,-0.4765,1.5985,1.1235,0.8825,0.8225,0.6025,1.0975,0.8005,0.422,-0.2395,0.1845
0.4285,1.822,1.3935,-1.125,-0.482,1.6075,1.121,0.881,0.8215,0.6005,1.095,0.7965,0.42,-0.234,0.183
0.4265,1.846,1.42,-1.136,-0.4965,1.633,1.113,0.873,0.8125,0.593,1.0875,0.788,0.42,-0.2185,0.183
0.425,1.825,1.4,-1.1245,-0.4875,1.6125,1.121,0.881,0.8175,0.6,1.093,0.795,0.42,-0.2325,0.182
0.427,1.78,1.3535,-1.104,-0.463,1.567,1.135,0.895,0.8345,0.6145,1.1065,0.808,0.419,-0.2605,0.183
0.4285,1.793,1.3645,-1.111,-0.468,1.5785,1.1305,0.8905,0.826,0.61,1.102,0.8055,0.4205,-0.2515,0.184
0.4255,1.8175,1.3925,-1.121,-0.4835,1.605,1.1235,0.885,0.814,0.6025,1.0935,0.7985,0.421,-0.234,0.1845
0.4255,1.789,1.3635,-1.107,-0.469,1.5765,1.129,0.893,0.822,0.6105,1.1,0.8065,0.421,-0.2485,0.1855
0.4275,1.7755,1.348,-1.1015,-0.46,1.5615,1.1355,0.898,0.8265,0.6175,1.1065,0.811,0.4205,-0.2585,0.184
0.4305,1.7655,1.335,-1.0985,-0.452,1.5505,1.141,0.9015,0.8305,0.622,1.1105,0.8165,0.421,-0.269,0.184
0.433,1.787,1.354,-1.11,-0.4605,1.5705,1.132,0.8915,0.8215,0.612,1.1035,0.8095,0.423,-0.2585,0.186
0.4295,1.823,1.3935,-1.1265,-0.4815,1.6085,1.1185,0.8765,0.8075,0.596,1.0895,0.7945,0.422,-0.233,0.1855
0.4245,1.817,1.3925,-1.1205,-0.484,1.6045,1.117,0.877,0.807,0.5945,1.0855,0.793,0.4195,-0.232,0.1855
0.423,1.8,1.377,-1.1115,-0.477,1.5885,1.1235,0.886,0.817,0.6015,1.0935,0.7975,0.4185,-0.244,0.187
0.425,1.7755,1.351,-1.1005,-0.463,1.563,1.134,0.8945,0.8305,0.61,1.1045,0.808,0.4185,-0.2615,0.1855
0.425,1.798,1.373,-1.1115,-0.474,1.5855,1.126,0.887,0.825,0.6025,1.096,0.8015,0.419,-0.2465,0.1835
0.4225,1.847,1.4245,-1.135,-0.5005,1.636,1.108,0.8685,0.8075,0.5845,1.0785,0.7855,0.42,-0.215,0.1855
0.4235,1.851,1.428,-1.137,-0.502,1.6395,1.1065,0.8685,0.807,0.584,1.077,0.786,0.42,-0.2135,0.1875
0.421,1.8255,1.4045,-1.123,-0.4915,1.615,1.111,0.875,0.8125,0.59,1.081,0.788,0.415,-0.225,0.1865
0.42,1.823,1.403,-1.1215,-0.4915,1.613,1.108,0.8705,0.8105,0.5865,1.078,0.783,0.4155,-0.222,0.187
0.4225,1.8255,1.403,-1.124,-0.49,1.6145,1.1055,0.872,0.811,0.587,1.0785,0.781,0.415,-0.222,0.1855
0.4225,1.8085,1.386,-1.1155,-0.4815,1.597,1.11,0.8775,0.8165,0.594,1.085,0.787,0.4155,-0.2315,0.1865
0.4235,1.794,1.3705,-1.109,-0.4735,1.5825,1.1145,0.8815,0.824,0.601,1.0905,0.795,0.418,-0.2415,0.186
0.422,1.7945,1.3725,-1.1085,-0.475,1.5835,1.1145,0.882,0.823,0.601,1.0895,0.794,0.417,-0.243,0.185
0.422,1.81,1.388,-1.1165,-0.4825,1.599,1.11,0.8765,0.8165,0.5955,1.083,0.788,0.4185,-0.234,0.186
0.422,1.8115,1.3895,-1.117,-0.4835,1.6005,1.109,0.877,0.816,0.595,1.084,0.788,0.4185,-0.233,0.187
0.422,1.8015,1.3795,-1.112,-0.4785,1.5905,1.1135,0.88,0.82,0.5985,1.087,0.791,0.4175,-0.2395,0.188
0.4235,1.7985,1.375,-1.111,-0.4755,1.587,1.1125,0.8795,0.8215,0.5975,1.0845,0.7895,0.4175,-0.24,0.187
0.4225,1.8,1.3775,-1.1115,-0.4775,1.589,1.115,0.8815,0.822,0.599,1.0885,0.7925,0.418,-0.239,0.189
0.424,1.806,1.3815,-1.115,-0.4785,1.5935,1.116,0.8795,0.82,0.5965,1.087,0.791,0.4165,-0.2375,0.188
0.4205,1.8075,1.387,-1.114,-0.483,1.597,1.1135,0.878,0.817,0.5945,1.0845,0.787,0.416,-0.2345,0.187
0.4205,1.8045,1.384,-1.1125,-0.4815,1.5945,1.1125,0.878,0.8165,0.5935,1.085,0.787,0.417,-0.2335,0.189
0.416,1.805,1.389,-1.111,-0.486,1.597,1.1105,0.8745,0.814,0.5895,1.0815,0.7825,0.415,-0.232,0.189
0.4145,1.8115,1.397,-1.1135,-0.491,1.604,1.1105,0.874,0.8125,0.589,1.0805,0.7805,0.4145,-0.2305,0.1905
0.4195,1.8195,1.3995,-1.1195,-0.4895,1.6095,1.108,0.871,0.8095,0.5875,1.0795,0.78,0.416,-0.2255,0.19
0.412,1.8215,1.409,-1.117,-0.498,1.615,1.1085,0.8705,0.8075,0.586,1.078,0.777,0.4125,-0.2225,0.1875
0.4165,1.8185,1.402,-1.1175,-0.4925,1.6105,1.109,0.87,0.8085,0.586,1.079,0.7805,0.415,-0.2255,0.189
0.42,1.8155,1.395,-1.118,-0.487,1.605,1.111,0.8725,0.8125,0.591,1.083,0.7825,0.416,-0.229,0.19
0.4215,1.8045,1.3825,-1.113,-0.4805,1.5935,1.1105,0.874,0.814,0.592,1.0825,0.781,0.4145,-0.233,0.1885
0.4215,1.796,1.3745,-1.109,-0.4765,1.5855,1.111,0.8735,0.8145,0.592,1.0855,0.785,0.4175,-0.2365,0.189
0.414,1.798,1.384,-1.1065,-0.4845,1.591,1.113,0.874,0.816,0.5955,1.0875,0.784,0.415,-0.2375,0.1865
0.415,1.8005,1.3855,-1.108,-0.485,1.593,1.111,0.871,0.812,0.594,1.0835,0.7825,0.414,-0.233,0.1865
0.4175,1.816,1.3985,-1.117,-0.49,1.607,1.1055,0.8685,0.808,0.5905,1.082,0.7775,0.4135,-0.2225,0.1865
0.42,1.816,1.3965,-1.118,-0.488,1.6065,1.1045,0.8665,0.8085,0.5895,1.0805,0.7775,0.413,-0.2255,0.1845
0.4195,1.811,1.3915,-1.1155,-0.486,1.6015,1.109,0.8685,0.8095,0.5895,1.079,0.7785,0.4125,-0.23,0.1865
0.42,1.7975,1.3775,-1.109,-0.4785,1.5875,1.1125,0.8735,0.814,0.594,1.083,0.781,0.4105,-0.2355,0.1875
0.42,1.7765,1.357,-1.0985,-0.468,1.567,1.118,0.8785,0.8205,0.603,1.0915,0.7895,0.413,-0.2485,0.1865
0.4165,1.7965,1.3795,-1.107,-0.481,1.588,1.109,0.873,0.8135,0.595,1.0835,0.783,0.414,-0.2345,0.185
0.418,1.822,1.404,-1.12,-0.4925,1.613,1.1005,0.866,0.8065,0.5875,1.074,0.778,0.414,-0.2195,0.1865
0.415,1.829,1.4135,-1.122,-0.499,1.6215,1.101,0.865,0.8055,0.587,1.0745,0.7765,0.4145,-0.217,0.1875
0.4145,1.8045,1.39,-1.11,-0.4875,1.5975,1.1065,0.869,0.813,0.592,1.0815,0.782,0.4135,-0.232,0.1855
0.4185,1.783,1.364,-1.101,-0.4725,1.5735,1.113,0.8695,0.816,0.5985,1.0875,0.789,0.4125,-0.249,0.188
0.4165,1.8,1.383,-1.1085,-0.483,1.5915,1.1025,0.8635,0.8085,0.59,1.08,0.7825,0.414,-0.2325,0.1895
0.4155,1.8145,1.3985,-1.1155,-0.491,1.6065,1.0995,0.866,0.81,0.5885,1.0785,0.783,0.4175,-0.2175,0.1885
0.417,1.815,1.398,-1.116,-0.4905,1.6065,1.1015,0.868,0.8105,0.589,1.0815,0.785,0.4195,-0.2205,0.1895
0.415,1.811,1.3955,-1.113,-0.49,1.603,1.0985,0.867,0.81,0.5875,1.0805,0.783,0.4185,-0.225,0.1895
0.4115,1.8085,1.397,-1.11,-0.4925,1.6025,1.0975,0.8655,0.8085,0.588,1.0795,0.782,0.42,-0.2245,0.1885
0.4065,1.806,1.4,-1.1065,-0.497,1.603,1.0985,0.8615,0.806,0.5855,1.078,0.78,0.418,-0.221,0.19
0.408,1.807,1.399,-1.1075,-0.4955,1.6025,1.0985,0.8585,0.8045,0.585,1.076,0.7775,0.414,-0.2205,0.1895
0.4145,1.82,1.4055,-1.1175,-0.4955,1.613,1.0965,0.86,0.8055,0.5865,1.0765,0.777,0.417,-0.213,0.187
0.4225,1.8265,1.404,-1.124,-0.4905,1.615,1.103,0.869,0.813,0.5935,1.083,0.784,0.4175,-0.216,0.189
0.429,1.813,1.3845,-1.121,-0.4775,1.5985,1.113,0.8785,0.8225,0.605,1.093,0.7935,0.4155,-0.2305,0.1885
0.4245,1.7905,1.3665,-1.1075,-0.471,1.5785,1.1155,0.8825,0.8275,0.61,1.096,0.7975,0.418,-0.2385,0.1845
0.4175,1.7835,1.366,-1.101,-0.474,1.575,1.1125,0.883,0.8305,0.6125,1.0965,0.7985,0.4225,-0.2345,0.183
0.418,1.796,1.378,-1.1075,-0.48,1.587,1.108,0.882,0.832,0.6155,1.097,0.7985,0.4265,-0.2265,0.182
0.4245,1.8115,1.387,-1.118,-0.481,1.5995,1.1035,0.882,0.8325,0.6155,1.097,0.799,0.432,-0.2235,0.1825
0.427,1.8115,1.3845,-1.1195,-0.4785,1.598,1.1065,0.896,0.847,0.628,1.107,0.806,0.437,-0.222,0.1785
0.424,1.8055,1.3815,-1.115,-0.4785,1.593,1.11,0.914,0.8665,0.645,1.119,0.8135,0.443,-0.219,0.1725
0.4255,1.8135,1.388,-1.1195,-0.481,1.601,1.117,0.946,0.9015,0.6705,1.137,0.824,0.452,-0.2115,0.1615
0.4235,1.8235,1.4,-1.1235,-0.488,1.612,1.131,0.994,0.955,0.7115,1.162,0.8395,0.464,-0.2005,0.1445
0.418,1.856,1.438,-1.1365,-0.51,1.647,1.1365,1.0305,0.9995,0.7435,1.1785,0.845,0.4735,-0.17,0.1205
0.4075,1.8865,1.479,-1.147,-0.5355,1.6825,1.1515,1.0845,1.0605,0.7885,1.2025,0.8535,0.482,-0.136,0.0905
0.3905,1.908,1.5175,-1.149,-0.563,1.7125,1.1805,1.169,1.1475,0.849,1.2355,0.8695,0.494,-0.103,0.0505
0.3775,1.9485,1.5715,-1.163,-0.5965,1.76,1.208,1.256,1.2345,0.907,1.268,0.886,0.5115,-0.055,0.0065
0.3635,1.9815,1.6185,-1.1725,-0.627,1.8,1.2325,1.318,1.294,0.955,1.301,0.908,0.526,-0.012,-0.0265
0.3435,2.022,1.6785,-1.1825,-0.6675,1.85,1.251,1.347,1.3125,0.9675,1.3115,0.9125,0.5235,0.036,-0.0525
0.329,2.061,1.732,-1.195,-0.701,1.8965,1.253,1.3375,1.2925,0.9555,1.3095,0.91,0.5175,0.077,-0.065
0.3235,2.0935,1.77,-1.2085,-0.723,1.932,1.245,1.3035,1.251,0.931,1.3035,0.9125,0.516,0.1075,-0.0615
0.319,2.125,1.806,-1.222,-0.743,1.9655,1.2355,1.27,1.2055,0.8945,1.285,0.9065,0.5095,0.14,-0.0555
0.315,2.137,1.8215,-1.226,-0.7525,1.9795,1.227,1.237,1.158,0.8595,1.27,0.9015,0.503,0.1575,-0.044
0.306,2.1505,1.8445,-1.228,-0.769,1.9975,1.235,1.216,1.123,0.8335,1.264,0.908,0.499,0.1755,-0.047
0.2925,2.1745,1.882,-1.233,-0.7945,2.028,1.2425,1.18,1.077,0.807,1.263,0.916,0.497,0.2035,-0.0535
0.287,2.188,1.9015,-1.237,-0.807,2.045,1.242,1.134,1.025,0.7795,1.264,0.929,0.4985,0.223,-0.0485
0.2885,2.169,1.881,-1.2285,-0.796,2.025,1.2465,1.096,0.9845,0.7625,1.2795,0.9625,0.509,0.217,-0.039
0.2915,2.173,1.882,-1.232,-0.795,2.0275,1.2295,0.9915,0.8805,0.7055,1.272,0.9815,0.511,0.2255,-0.009
0.298,2.255,1.957,-1.2765,-0.8295,2.106,1.1645,0.8255,0.723,0.615,1.241,0.98,0.516,0.2885,0.038
0.3105,2.3255,2.015,-1.318,-0.852,2.1705,1.0875,0.6545,0.572,0.534,1.219,0.987,0.5305,0.3365,0.0875
0.329,2.3355,2.007,-1.332,-0.8385,2.1715,1.0435,0.5195,0.446,0.4645,1.21,1.011,0.5465,0.342,0.136
0.3625,2.321,1.958,-1.3415,-0.797,2.1395,1.0125,0.4335,0.357,0.42,1.2245,1.0625,0.5835,0.3255,0.1905
0.409,2.307,1.898,-1.358,-0.744,2.1025,0.957,0.3075,0.24,0.366,1.241,1.122,0.6255,0.3055,0.2565
0.4605,2.3165,1.856,-1.3885,-0.697,2.086,0.874,0.119,0.0725,0.28,1.244,1.177,0.667,0.306,0.3335
0.5235,2.333,1.809,-1.4285,-0.6425,2.071,0.779,-0.0775,-0.107,0.1775,1.2335,1.2295,0.7135,0.3025,0.425
0.585,2.345,1.7605,-1.465,-0.588,2.053,0.691,-0.247,-0.271,0.0735,1.216,1.271,0.758,0.2925,0.516
0.6525,2.3655,1.713,-1.509,-0.53,2.039,0.602,-0.406,-0.4245,-0.0295,1.1955,1.3145,0.8045,0.295,0.603
0.743,2.3635,1.6205,-1.553,-0.439,1.992,0.5065,-0.575,-0.579,-0.12,1.1975,1.3855,0.8685,0.2745,0.7
0.8425,2.3325,1.4905,-1.5875,-0.324,1.9115,0.41,-0.7445,-0.736,-0.2125,1.2,1.4555,0.9325,0.226,0.8035
0.9405,2.351,1.4115,-1.6455,-0.2355,1.881,0.304,-0.9255,-0.902,-0.3125,1.188,1.511,0.996,0.21,0.9015
1.04,2.374,1.3345,-1.707,-0.147,1.854,0.208,-1.08,-1.0285,-0.365,1.218,1.5995,1.084,0.202,0.982
1.152,2.3715,1.2195,-1.762,-0.0335,1.7955,0.1095,-1.216,-1.1315,-0.399,1.2645,1.703,1.1845,0.1825,1.0615
1.274,2.377,1.1035,-1.8255,0.0855,1.7405,0.005,-1.3325,-1.2155,-0.424,1.3115,1.8035,1.291,0.162,1.139
1.398,2.37,0.972,-1.884,0.213,1.6715,-0.086,-1.4165,-1.2755,-0.4445,1.346,1.8875,1.384,0.1275,1.205
1.491,2.372,0.8815,-1.9315,0.305,1.627,-0.167,-1.51,-1.3525,-0.4975,1.3255,1.91,1.425,0.1055,1.273
1.558,2.3205,0.7635,-1.939,0.3975,1.542,-0.2165,-1.5805,-1.421,-0.5625,1.272,1.8905,1.4175,0.044,1.3345
1.622,2.229,0.6075,-1.9255,0.5075,1.4185,-0.255,-1.63,-1.4845,-0.6445,1.1895,1.838,1.3835,-0.053,1.4005
1.6765,2.1725,0.496,-1.9245,0.5905,1.3345,-0.2905,-1.685,-1.553,-0.735,1.078,1.7425,1.326,-0.1255,1.4555
1.7075,2.0805,0.3735,-1.894,0.6675,1.227,-0.2925,-1.708,-1.604,-0.837,0.9205,1.5795,1.21,-0.2295,1.4915
1.718,1.9705,0.253,-1.8445,0.733,1.112,-0.285,-1.7205,-1.6545,-0.9565,0.7265,1.367,1.055,-0.3445,1.5265
1.7475,1.843,0.0955,-1.795,0.826,0.9695,-0.28,-1.7145,-1.672,-1.0285,0.5865,1.206,0.944,-0.4775,1.55
1.774,1.7065,-0.0675,-1.74,0.921,0.8195,-0.2655,-1.678,-1.6535,-1.0605,0.4905,1.086,0.8575,-0.6125,1.5715
1.796,1.6155,-0.1805,-1.7055,0.9885,0.7175,-0.2555,-1.6285,-1.622,-1.077,0.407,0.9765,0.7845,-0.709,1.5835
1.8215,1.5535,-0.268,-1.6875,1.045,0.6425,-0.248,-1.5755,-1.586,-1.097,0.3185,0.859,0.7165,-0.7875,1.5815
1.818,1.5245,-0.2935,-1.671,1.056,0.6155,-0.2265,-1.518,-1.5525,-1.137,0.197,0.698,0.6115,-0.829,1.567
1.816,1.485,-0.3305,-1.65,1.0735,0.577,-0.199,-1.4545,-1.512,-1.166,0.0925,0.557,0.5155,-0.8725,1.5495
1.809,1.426,-0.383,-1.6175,1.0965,0.5215,-0.1715,-1.391,-1.471,-1.1885,0.001,0.4295,0.4275,-0.93,1.5325
1.776,1.3645,-0.4115,-1.57,1.094,0.4765,-0.13,-1.3105,-1.4135,-1.195,-0.0775,0.3035,0.3345,-0.99,1.511
1.762,1.289,-0.473,-1.525,1.118,0.408,-0.0925,-1.227,-1.349,-1.182,-0.124,0.222,0.2745,-1.068,1.4925
1.773,1.1825,-0.5905,-1.4775,1.182,0.296,-0.048,-1.1205,-1.261,-1.146,-0.1465,0.166,0.239,-1.1815,1.4675
1.779,1.089,-0.6895,-1.434,1.2345,0.1995,-0.0005,-1.008,-1.1655,-1.1045,-0.1625,0.114,0.2065,-1.2775,1.439
1.7825,1.0265,-0.756,-1.404,1.2695,0.1355,0.036,-0.9045,-1.0755,-1.0595,-0.1715,0.0735,0.186,-1.3405,1.406
1.768,0.986,-0.7825,-1.3765,1.2755,0.102,0.065,-0.819,-1.007,-1.0345,-0.193,0.021,0.1555,-1.3855,1.3835
1.746,0.9555,-0.791,-1.3505,1.269,0.0825,0.093,-0.741,-0.9465,-1.0145,-0.2125,-0.025,0.125,-1.422,1.362
1.7325,0.9295,-0.803,-1.331,1.268,0.0635,0.1225,-0.6565,-0.874,-0.9765,-0.2105,-0.0495,0.1105,-1.4485,1.334
1.713,0.928,-0.785,-1.3205,1.249,0.0715,0.1455,-0.5945,-0.8305,-0.9665,-0.2325,-0.0925,0.0835,-1.458,1.3115
1.6705,0.9035,-0.767,-1.2865,1.219,0.0685,0.192,-0.5175,-0.776,-0.948,-0.245,-0.13,0.05,-1.4845,1.28
1.621,0.8745,-0.746,-1.2475,1.184,0.064,0.248,-0.441,-0.7165,-0.917,-0.2445,-0.1565,0.013,-1.503,1.2435
1.5835,0.861,-0.722,-1.222,1.153,0.0695,0.291,-0.3785,-0.666,-0.892,-0.2475,-0.18,-0.0125,-1.5065,1.214
1.5325,0.857,-0.675,-1.1945,1.104,0.091,0.3285,-0.331,-0.6335,-0.8815,-0.2575,-0.2105,-0.0435,-1.5,1.1885
1.488,0.8585,-0.6295,-1.173,1.059,0.1145,0.359,-0.296,-0.608,-0.8725,-0.2665,-0.2375,-0.072,-1.491,1.1615
1.4465,0.853,-0.5935,-1.1495,1.0205,0.1295,0.392,-0.2555,-0.5735,-0.8525,-0.263,-0.2495,-0.0925,-1.4875,1.138
1.393,0.855,-0.538,-1.124,0.966,0.1585,0.428,-0.2215,-0.5485,-0.8415,-0.266,-0.2695,-0.123,-1.473,1.115
1.3455,0.853,-0.492,-1.0995,0.919,0.1805,0.461,-0.19,-0.525,-0.8295,-0.2685,-0.2875,-0.1465,-1.4655,1.0925
1.306,0.851,-0.455,-1.0785,0.8805,0.198,0.4905,-0.159,-0.501,-0.8145,-0.265,-0.2955,-0.162,-1.459,1.0735
1.269,0.8635,-0.4055,-1.0665,0.8375,0.229,0.5125,-0.1335,-0.4765,-0.794,-0.254,-0.296,-0.1705,-1.439,1.053
1.224,0.8795,-0.344,-1.052,0.784,0.2675,0.534,-0.1125,-0.451,-0.7745,-0.243,-0.303,-0.1805,-1.4155,1.027
1.173,0.9045,-0.2685,-1.039,0.721,0.318,0.5605,-0.0855,-0.4245,-0.7575,-0.2355,-0.309,-0.192,-1.385,0.999
1.121,0.921,-0.2005,-1.0215,0.661,0.3605,0.592,-0.053,-0.392,-0.7305,-0.216,-0.3015,-0.2,-1.357,0.9735
1.087,0.9195,-0.1675,-1.004,0.6275,0.376,0.627,-0.0025,-0.3395,-0.679,-0.178,-0.2765,-0.1905,-1.347,0.943
1.0525,0.9215,-0.131,-0.987,0.592,0.395,0.6615,0.05,-0.2845,-0.6295,-0.1415,-0.2545,-0.182,-1.341,0.911
1.0125,0.9265,-0.086,-0.97,0.5495,0.42,0.69,0.0905,-0.2435,-0.597,-0.1165,-0.2435,-0.1815,-1.3265,0.8775
0.9825,0.937,-0.045,-0.96,0.514,0.446,0.7165,0.1385,-0.192,-0.55,-0.079,-0.217,-0.168,-1.308,0.843
0.946,0.9385,-0.0075,-0.9425,0.477,0.4655,0.75,0.189,-0.14,-0.502,-0.041,-0.1925,-0.1605,-1.297,0.809
0.915,0.9365,0.0215,-0.926,0.447,0.479,0.7845,0.239,-0.088,-0.4545,-0.0055,-0.168,-0.152,-1.2945,0.772
0.894,0.961,0.067,-0.928,0.4135,0.514,0.8065,0.282,-0.0405,-0.411,0.0295,-0.147,-0.1355,-1.2785,0.7355
