i,ii,iii,avr,avl,avf,v1,v2,v3,v4,v5,v6,vx,vy,vz
-0.701,-0.821,-0.12,0.7605,-0.291,-0.4705,-0.3345,0.1865,-0.0065,0.0455,-0.0315,0.007,0.2155,-0.174,0.1005
-0.6945,-0.8165,-0.122,0.755,-0.286,-0.469,-0.334,0.194,0.002,0.0515,-0.0255,0.0135,0.2195,-0.175,0.102
-0.7,-0.8225,-0.1225,0.761,-0.289,-0.4725,-0.333,0.196,0.0075,0.0545,-0.025,0.0135,0.222,-0.171,0.098
-0.715,-0.835,-0.1205,0.775,-0.2975,-0.478,-0.338,0.193,0.006,0.0525,-0.028,0.0105,0.2225,-0.1745,0.0995
-0.722,-0.841,-0.1185,0.7815,-0.302,-0.48,-0.338,0.1975,0.006,0.0515,-0.03,0.0085,0.2225,-0.172,0.096
-0.724,-0.8365,-0.1125,0.78,-0.306,-0.4745,-0.3365,0.2005,0.012,0.053,-0.03,0.008,0.2235,-0.171,0.097
-0.7285,-0.833,-0.104,0.7805,-0.3125,-0.4685,-0.339,0.1995,0.0145,0.0525,-0.028,0.011,0.2275,-0.1715,0.098
-0.7345,-0.841,-0.107,0.7875,-0.314,-0.474,-0.338,0.197,0.01,0.0535,-0.0285,0.0105,0.2255,-0.175,0.0925
-0.7345,-0.85,-0.1155,0.792,-0.31,-0.4825,-0.3355,0.1995,0.014,0.0545,-0.028,0.0095,0.2245,-0.1805,0.09
-0.7395,-0.8575,-0.118,0.798,-0.311,-0.4875,-0.341,0.199,0.016,0.0505,-0.0295,0.0065,0.2255,-0.176,0.092
-0.7325,-0.851,-0.1185,0.7915,-0.307,-0.485,-0.342,0.198,0.0175,0.0495,-0.03,0.006,0.227,-0.173,0.091
-0.724,-0.84,-0.116,0.7815,-0.304,-0.478,-0.336,0.205,0.0225,0.0525,-0.0255,0.0095,0.227,-0.1675,0.0865
-0.724,-0.839,-0.115,0.7815,-0.305,-0.477,-0.3295,0.209,0.021,0.0535,-0.0235,0.0105,0.226,-0.166,0.085
-0.718,-0.841,-0.1225,0.779,-0.298,-0.482,-0.3375,0.205,0.018,0.0515,-0.025,0.0105,0.231,-0.177,0.0885
-0.719,-0.838,-0.119,0.7785,-0.3,-0.4785,-0.3385,0.2105,0.0205,0.0545,-0.022,0.0125,0.233,-0.179,0.0885
-0.7075,-0.827,-0.1195,0.767,-0.294,-0.4735,-0.334,0.2145,0.0225,0.0555,-0.0205,0.014,0.2315,-0.1735,0.086
-0.6695,-0.8175,-0.1485,0.743,-0.2605,-0.483,-0.343,0.208,0.022,0.052,-0.022,0.012,0.2335,-0.177,0.089
-0.6645,-0.8105,-0.1465,0.7375,-0.259,-0.4785,-0.327,0.212,0.026,0.054,-0.021,0.013,0.236,-0.1725,0.084
-0.6935,-0.802,-0.1085,0.7475,-0.2925,-0.4555,-0.318,0.22,0.032,0.0615,-0.013,0.02,0.237,-0.164,0.082
-0.711,-0.8,-0.0895,0.7555,-0.311,-0.4445,-0.32,0.2255,0.041,0.065,-0.008,0.024,0.2365,-0.165,0.082
-0.7165,-0.8015,-0.085,0.759,-0.316,-0.4435,-0.3225,0.22,0.036,0.0585,-0.016,0.018,0.2375,-0.157,0.079
-0.7205,-0.81,-0.0895,0.765,-0.3155,-0.45,-0.3295,0.2155,0.029,0.0545,-0.022,0.013,0.239,-0.151,0.078
-0.724,-0.8245,-0.1005,0.774,-0.3115,-0.4625,-0.3265,0.2155,0.03,0.0535,-0.023,0.0115,0.2375,-0.153,0.076
-0.718,-0.8265,-0.1085,0.772,-0.305,-0.4675,-0.3215,0.2175,0.0315,0.0585,-0.018,0.018,0.2405,-0.1565,0.0765
-0.719,-0.826,-0.107,0.7725,-0.3065,-0.4665,-0.322,0.2215,0.0405,0.0605,-0.018,0.019,0.2445,-0.152,0.0755
-0.711,-0.808,-0.097,0.7595,-0.3075,-0.4525,-0.3205,0.2235,0.045,0.062,-0.0175,0.021,0.245,-0.147,0.077
-0.6965,-0.7855,-0.089,0.7405,-0.304,-0.437,-0.309,0.2315,0.0515,0.072,-0.0075,0.0305,0.2425,-0.142,0.074
-0.696,-0.787,-0.091,0.7415,-0.303,-0.439,-0.308,0.2365,0.0545,0.077,-0.004,0.0335,0.241,-0.142,0.0715
-0.702,-0.795,-0.093,0.7485,-0.305,-0.444,-0.3035,0.2435,0.0605,0.082,0.0015,0.037,0.2435,-0.15,0.07
-0.734,-0.8275,-0.0935,0.7805,-0.32,-0.4605,-0.308,0.2405,0.0605,0.0775,-0.005,0.031,0.243,-0.1505,0.069
-0.7505,-0.8475,-0.097,0.799,-0.327,-0.4725,-0.3135,0.236,0.057,0.074,-0.009,0.027,0.243,-0.152,0.07
-0.7345,-0.8325,-0.098,0.7835,-0.3185,-0.4655,-0.3075,0.2415,0.061,0.08,-0.0045,0.0305,0.245,-0.151,0.07
-0.729,-0.8315,-0.1025,0.78,-0.314,-0.4665,-0.3165,0.2385,0.058,0.077,-0.0075,0.028,0.246,-0.154,0.0705
-0.733,-0.84,-0.107,0.7865,-0.3135,-0.4735,-0.3205,0.2395,0.057,0.0755,-0.009,0.027,0.2485,-0.157,0.07
-0.74,-0.838,-0.098,0.7885,-0.321,-0.468,-0.3115,0.244,0.0575,0.0785,-0.0095,0.0285,0.249,-0.151,0.066
-0.725,-0.8145,-0.0895,0.77,-0.318,-0.452,-0.3065,0.25,0.0645,0.0845,-0.004,0.0345,0.2495,-0.1475,0.0625
-0.7095,-0.7965,-0.0865,0.7525,-0.3115,-0.4415,-0.3075,0.2565,0.0665,0.0905,0.001,0.039,0.25,-0.147,0.0675
-0.7205,-0.7995,-0.079,0.7595,-0.321,-0.439,-0.301,0.258,0.071,0.093,0.0035,0.039,0.2515,-0.142,0.065
-0.7185,-0.8015,-0.083,0.76,-0.318,-0.4425,-0.3055,0.256,0.07,0.093,0.003,0.0385,0.2525,-0.141,0.0625
-0.715,-0.8045,-0.09,0.7595,-0.3125,-0.4475,-0.307,0.256,0.0665,0.0945,0.002,0.037,0.2515,-0.143,0.063
-0.7195,-0.805,-0.0855,0.762,-0.3175,-0.445,-0.3055,0.2555,0.068,0.0945,0.0025,0.037,0.2535,-0.1335,0.0585
-0.7235,-0.8035,-0.08,0.7635,-0.322,-0.442,-0.314,0.256,0.067,0.093,-0.0005,0.036,0.2555,-0.129,0.058
-0.724,-0.8015,-0.0775,0.7625,-0.3235,-0.4395,-0.311,0.263,0.0775,0.097,0.0015,0.037,0.257,-0.1275,0.0555
-0.713,-0.7975,-0.084,0.755,-0.3145,-0.4405,-0.31,0.266,0.079,0.098,0.002,0.037,0.259,-0.1245,0.052
-0.7055,-0.7955,-0.09,0.7505,-0.308,-0.4425,-0.3055,0.262,0.075,0.0945,0.0,0.032,0.2585,-0.1255,0.0525
-0.7165,-0.7965,-0.08,0.7565,-0.3185,-0.4385,-0.302,0.264,0.079,0.0975,0.001,0.034,0.257,-0.122,0.052
-0.7285,-0.804,-0.075,0.766,-0.327,-0.4395,-0.3095,0.268,0.0815,0.101,0.0035,0.0355,0.2605,-0.121,0.051
-0.718,-0.7985,-0.0805,0.758,-0.319,-0.4395,-0.3095,0.271,0.0825,0.1015,0.0045,0.0365,0.261,-0.123,0.051
-0.7095,-0.785,-0.0755,0.747,-0.317,-0.43,-0.303,0.274,0.086,0.109,0.013,0.0435,0.2595,-0.1235,0.049
-0.7175,-0.786,-0.069,0.7515,-0.3245,-0.4275,-0.3,0.2735,0.091,0.109,0.0215,0.0475,0.264,-0.123,0.047
-0.727,-0.7895,-0.062,0.758,-0.333,-0.4255,-0.3,0.275,0.0925,0.105,0.0175,0.047,0.2645,-0.1235,0.047
-0.721,-0.782,-0.061,0.751,-0.33,-0.4215,-0.2975,0.2825,0.095,0.1095,0.0135,0.0435,0.2615,-0.127,0.0455
-0.7195,-0.788,-0.0685,0.7535,-0.3255,-0.4285,-0.301,0.2855,0.0955,0.1075,0.0055,0.0385,0.258,-0.127,0.0435
-0.7115,-0.7855,-0.074,0.7485,-0.319,-0.43,-0.2965,0.2855,0.0995,0.108,0.009,0.0385,0.2585,-0.1255,0.04
-0.706,-0.785,-0.079,0.745,-0.3135,-0.432,-0.296,0.285,0.102,0.108,0.0135,0.0385,0.26,-0.126,0.0365
-0.726,-0.8055,-0.0795,0.7655,-0.3235,-0.4425,-0.305,0.2795,0.0945,0.099,0.006,0.033,0.2605,-0.1255,0.0375
-0.713,-0.7975,-0.0845,0.755,-0.3145,-0.441,-0.3,0.2835,0.0975,0.1045,0.008,0.035,0.26,-0.127,0.036
-0.7165,-0.798,-0.0815,0.757,-0.318,-0.44,-0.298,0.285,0.0985,0.1055,0.0085,0.0355,0.2565,-0.1225,0.0325
-0.7165,-0.7945,-0.078,0.7555,-0.3195,-0.4365,-0.298,0.2865,0.1005,0.106,0.0105,0.0375,0.2575,-0.1195,0.033
-0.6845,-0.764,-0.0795,0.724,-0.303,-0.4215,-0.288,0.2965,0.1085,0.116,0.017,0.0445,0.259,-0.1165,0.033
-0.707,-0.7715,-0.065,0.739,-0.321,-0.4185,-0.2875,0.293,0.108,0.1135,0.015,0.043,0.2615,-0.111,0.029
-0.73,-0.79,-0.06,0.76,-0.3355,-0.425,-0.2905,0.29,0.103,0.11,0.01,0.0375,0.26,-0.111,0.025
-0.713,-0.7755,-0.0625,0.744,-0.3255,-0.419,-0.2845,0.2935,0.102,0.112,0.0145,0.041,0.2555,-0.114,0.0255
-0.7095,-0.7655,-0.0565,0.7375,-0.3265,-0.411,-0.2795,0.2955,0.107,0.115,0.0165,0.0445,0.2525,-0.1065,0.022
-0.709,-0.764,-0.055,0.736,-0.3275,-0.4095,-0.2785,0.299,0.1115,0.117,0.016,0.045,0.2525,-0.1005,0.02
-0.714,-0.7745,-0.061,0.744,-0.327,-0.418,-0.2795,0.3,0.1135,0.1195,0.0165,0.047,0.257,-0.1095,0.0215
-0.7225,-0.783,-0.0605,0.753,-0.3315,-0.4215,-0.271,0.3035,0.114,0.1225,0.018,0.048,0.259,-0.114,0.018
-0.724,-0.7795,-0.055,0.7515,-0.3345,-0.4175,-0.271,0.304,0.118,0.122,0.0205,0.047,0.257,-0.1115,0.0165
-0.7365,-0.787,-0.0505,0.7615,-0.3435,-0.4185,-0.281,0.2985,0.113,0.1165,0.016,0.0405,0.253,-0.1065,0.014
-0.7455,-0.7915,-0.046,0.7685,-0.35,-0.4185,-0.2835,0.294,0.104,0.1125,0.013,0.038,0.254,-0.104,0.0175
-0.7535,-0.7985,-0.045,0.776,-0.3545,-0.4215,-0.282,0.2925,0.105,0.111,0.0095,0.0345,0.255,-0.105,0.0185
-0.734,-0.7905,-0.0565,0.762,-0.339,-0.4235,-0.281,0.2955,0.1085,0.114,0.0105,0.0355,0.2535,-0.1105,0.0165
-0.716,-0.777,-0.0615,0.746,-0.3275,-0.419,-0.273,0.3025,0.1135,0.1215,0.0185,0.0435,0.2515,-0.1155,0.014
-0.721,-0.771,-0.05,0.7455,-0.336,-0.41,-0.266,0.3095,0.1195,0.1295,0.027,0.0485,0.249,-0.1175,0.013
-0.7175,-0.7665,-0.0485,0.742,-0.335,-0.4075,-0.269,0.311,0.118,0.131,0.0285,0.048,0.25,-0.116,0.0125
-0.7195,-0.7705,-0.051,0.745,-0.3345,-0.4105,-0.2665,0.308,0.1155,0.1275,0.024,0.043,0.247,-0.1115,0.009
-0.721,-0.7725,-0.0515,0.7465,-0.335,-0.412,-0.263,0.304,0.1105,0.1275,0.0215,0.042,0.245,-0.1125,0.009
-0.731,-0.7785,-0.047,0.7545,-0.342,-0.413,-0.268,0.304,0.1025,0.129,0.023,0.0415,0.2505,-0.112,0.0085
-0.718,-0.7775,-0.0595,0.7475,-0.3295,-0.419,-0.27,0.297,0.099,0.122,0.018,0.038,0.2495,-0.1145,0.01
-0.687,-0.7675,-0.0805,0.727,-0.3035,-0.424,-0.2685,0.29,0.0975,0.115,0.012,0.0325,0.2435,-0.114,0.007
-0.7,-0.767,-0.067,0.7335,-0.317,-0.417,-0.261,0.295,0.0995,0.1195,0.0185,0.0365,0.2435,-0.105,0.006
-0.73,-0.7675,-0.0375,0.7485,-0.3465,-0.4025,-0.2565,0.3025,0.1035,0.127,0.0255,0.0445,0.242,-0.0985,0.0045
-0.737,-0.768,-0.031,0.752,-0.353,-0.3995,-0.2545,0.306,0.106,0.1295,0.028,0.047,0.244,-0.0995,0.0045
-0.728,-0.768,-0.0405,0.7475,-0.344,-0.404,-0.2505,0.3005,0.104,0.1265,0.024,0.044,0.2435,-0.099,0.005
-0.721,-0.7655,-0.0445,0.743,-0.3385,-0.405,-0.2535,0.3,0.101,0.1275,0.025,0.044,0.2435,-0.098,0.007
-0.734,-0.7805,-0.0465,0.757,-0.3435,-0.4135,-0.2515,0.2925,0.091,0.1215,0.0205,0.04,0.241,-0.0965,0.007
-0.7515,-0.793,-0.0415,0.772,-0.3555,-0.417,-0.2505,0.2855,0.0885,0.115,0.0145,0.0345,0.2375,-0.097,0.0025
-0.7685,-0.804,-0.0355,0.786,-0.367,-0.42,-0.251,0.2855,0.0875,0.1145,0.015,0.0335,0.236,-0.103,0.0045
-0.773,-0.8045,-0.0315,0.7885,-0.371,-0.418,-0.2505,0.2865,0.0885,0.1155,0.016,0.0335,0.232,-0.1015,0.003
-0.779,-0.809,-0.03,0.794,-0.375,-0.4195,-0.248,0.285,0.09,0.113,0.016,0.0315,0.232,-0.101,0.002
-0.7785,-0.8155,-0.037,0.797,-0.371,-0.426,-0.249,0.2715,0.07,0.1035,0.008,0.0235,0.2265,-0.1015,0.0035
-0.7465,-0.7895,-0.043,0.7675,-0.352,-0.416,-0.2425,0.2755,0.074,0.1095,0.0135,0.03,0.226,-0.102,0.0045
-0.747,-0.7915,-0.0445,0.769,-0.3515,-0.418,-0.2315,0.28,0.079,0.1125,0.0145,0.033,0.226,-0.105,0.0035
-0.74,-0.7805,-0.041,0.76,-0.35,-0.4105,-0.2265,0.2815,0.08,0.116,0.0175,0.035,0.2215,-0.1105,0.0035
-0.7325,-0.7665,-0.034,0.749,-0.3495,-0.4,-0.227,0.2825,0.0815,0.1215,0.022,0.0385,0.225,-0.1085,0.0035
-0.7485,-0.7845,-0.036,0.7665,-0.3565,-0.4105,-0.2395,0.2725,0.0705,0.113,0.0155,0.031,0.2265,-0.1105,0.002
-0.742,-0.787,-0.045,0.764,-0.349,-0.416,-0.235,0.2735,0.073,0.1125,0.016,0.0305,0.2235,-0.12,0.005
-0.747,-0.7875,-0.0405,0.767,-0.3535,-0.414,-0.227,0.274,0.0705,0.114,0.0165,0.0295,0.2185,-0.113,0.001
-0.753,-0.7905,-0.0375,0.7715,-0.358,-0.414,-0.23,0.2705,0.0665,0.1135,0.016,0.031,0.218,-0.112,-0.0015
-0.7595,-0.8015,-0.042,0.7805,-0.359,-0.422,-0.237,0.264,0.0575,0.109,0.0105,0.026,0.2215,-0.116,0.003
-0.765,-0.8145,-0.0495,0.79,-0.358,-0.432,-0.2375,0.2555,0.0485,0.103,0.006,0.019,0.2175,-0.116,0.002
-0.7485,-0.8005,-0.052,0.7745,-0.3485,-0.4265,-0.2325,0.2575,0.0515,0.106,0.01,0.023,0.216,-0.1135,-0.0015
-0.7335,-0.775,-0.0415,0.754,-0.346,-0.408,-0.2235,0.2645,0.0575,0.112,0.0175,0.0275,0.2175,-0.1075,-0.004
-0.738,-0.774,-0.036,0.7555,-0.351,-0.405,-0.2155,0.26,0.057,0.11,0.014,0.0245,0.2165,-0.1035,-0.0055
-0.7555,-0.7955,-0.04,0.775,-0.358,-0.4175,-0.226,0.253,0.047,0.1045,0.008,0.0215,0.216,-0.104,-0.002
-0.749,-0.798,-0.049,0.773,-0.35,-0.4235,-0.225,0.25,0.0425,0.101,0.0075,0.021,0.212,-0.1015,-0.002
-0.7415,-0.797,-0.055,0.769,-0.3435,-0.426,-0.23,0.2395,0.036,0.091,-0.004,0.012,0.2085,-0.102,-0.0025
-0.7495,-0.8025,-0.053,0.7755,-0.3485,-0.428,-0.2325,0.2415,0.036,0.094,-0.002,0.0155,0.2085,-0.1165,-0.0005
-0.7625,-0.8025,-0.0395,0.7825,-0.3615,-0.421,-0.213,0.251,0.0435,0.104,0.009,0.0275,0.205,-0.117,-0.001
-0.776,-0.808,-0.032,0.7915,-0.3725,-0.42,-0.213,0.248,0.035,0.101,0.007,0.025,0.2035,-0.115,0.0015
-0.776,-0.8065,-0.031,0.791,-0.373,-0.419,-0.178,0.2365,0.0165,0.0945,0.001,0.019,0.1985,-0.1075,-0.002
-0.7785,-0.807,-0.0285,0.7925,-0.375,-0.418,-0.185,0.235,0.021,0.093,0.0005,0.017,0.199,-0.107,-0.0015
-0.7735,-0.8035,-0.0305,0.788,-0.3715,-0.417,-0.234,0.238,0.0305,0.0935,0.0035,0.018,0.2045,-0.1195,0.0035
-0.774,-0.805,-0.0315,0.7895,-0.3715,-0.4185,-0.217,0.2375,0.025,0.0935,0.0025,0.0185,0.1995,-0.125,0.0015
-0.7765,-0.8165,-0.04,0.7965,-0.369,-0.4285,-0.2065,0.238,0.0235,0.095,0.0035,0.019,0.1975,-0.1315,0.0015
-0.7995,-0.841,-0.041,0.82,-0.3795,-0.441,-0.217,0.226,0.0125,0.0865,-0.005,0.0125,0.199,-0.131,0.004
-0.7915,-0.8365,-0.0455,0.814,-0.3735,-0.441,-0.2185,0.2215,0.009,0.084,-0.0085,0.0105,0.198,-0.1285,0.006
-0.757,-0.804,-0.047,0.7805,-0.355,-0.4255,-0.2075,0.227,0.0165,0.09,0.0005,0.0185,0.197,-0.1265,0.006
-0.76,-0.807,-0.0465,0.7835,-0.357,-0.427,-0.207,0.2215,0.009,0.086,-0.003,0.0145,0.195,-0.13,0.007
-0.7675,-0.8205,-0.0535,0.7935,-0.357,-0.437,-0.215,0.2115,-0.0015,0.0775,-0.0095,0.008,0.1955,-0.132,0.0065
-0.779,-0.8325,-0.0535,0.805,-0.363,-0.443,-0.217,0.2065,-0.0065,0.0725,-0.014,0.0045,0.1965,-0.1285,0.007
-0.782,-0.831,-0.049,0.8065,-0.367,-0.44,-0.223,0.206,-0.0075,0.0725,-0.013,0.0045,0.1935,-0.126,0.008
-0.7885,-0.8335,-0.045,0.811,-0.372,-0.4395,-0.2215,0.2035,-0.0115,0.0715,-0.013,0.0035,0.193,-0.1245,0.0085
-0.8015,-0.853,-0.0515,0.827,-0.3755,-0.452,-0.214,0.2,-0.016,0.0695,-0.0165,0.0015,0.1905,-0.128,0.007
-0.8005,-0.8585,-0.058,0.829,-0.3715,-0.458,-0.208,0.204,-0.0105,0.0735,-0.0115,0.0085,0.1895,-0.13,0.008
-0.7795,-0.8385,-0.0595,0.809,-0.3605,-0.449,-0.2035,0.2055,-0.0085,0.077,-0.007,0.014,0.19,-0.13,0.009
-0.7685,-0.824,-0.0555,0.796,-0.357,-0.4395,-0.209,0.1965,-0.0185,0.0715,-0.0135,0.0085,0.191,-0.1315,0.011
-0.762,-0.812,-0.05,0.787,-0.3565,-0.431,-0.2075,0.2,-0.014,0.0725,-0.0145,0.0105,0.189,-0.1355,0.011
-0.7535,-0.8015,-0.048,0.7775,-0.353,-0.425,-0.1985,0.2085,-0.0075,0.0805,-0.007,0.0175,0.184,-0.138,0.008
-0.776,-0.821,-0.0445,0.798,-0.366,-0.4325,-0.1985,0.2035,-0.017,0.076,-0.0105,0.015,0.183,-0.1335,0.0135
-0.789,-0.8345,-0.0455,0.8115,-0.372,-0.44,-0.1965,0.197,-0.0245,0.068,-0.017,0.0105,0.18,-0.129,0.0125
-0.7795,-0.829,-0.0495,0.804,-0.365,-0.4395,-0.194,0.1955,-0.024,0.0695,-0.016,0.01,0.181,-0.128,0.0125
-0.7835,-0.8325,-0.0485,0.808,-0.368,-0.4405,-0.1995,0.195,-0.025,0.068,-0.019,0.0085,0.183,-0.129,0.015
-0.7915,-0.83,-0.0385,0.8105,-0.3765,-0.4345,-0.2,0.1965,-0.026,0.0715,-0.017,0.0115,0.181,-0.135,0.017
-0.79,-0.826,-0.036,0.8075,-0.377,-0.431,-0.1965,0.197,-0.0245,0.073,-0.0115,0.014,0.179,-0.1395,0.019
-0.7855,-0.8325,-0.047,0.809,-0.3695,-0.44,-0.1945,0.1935,-0.0275,0.068,-0.014,0.011,0.179,-0.146,0.0155
-0.7875,-0.8355,-0.048,0.811,-0.37,-0.4415,-0.205,0.191,-0.0285,0.0675,-0.0175,0.0105,0.1795,-0.1465,0.0185
-0.795,-0.837,-0.042,0.816,-0.377,-0.4395,-0.2075,0.185,-0.0365,0.063,-0.021,0.0055,0.178,-0.1445,0.021
-0.8005,-0.842,-0.041,0.821,-0.38,-0.4415,-0.208,0.183,-0.0475,0.0615,-0.0235,0.0035,0.1815,-0.1445,0.023
-0.776,-0.8215,-0.0455,0.7985,-0.3655,-0.4335,-0.2065,0.185,-0.0355,0.066,-0.017,0.011,0.1795,-0.141,0.022
-0.759,-0.8065,-0.0475,0.7825,-0.356,-0.427,-0.185,0.1845,-0.0355,0.0685,-0.013,0.014,0.1765,-0.143,0.021
-0.753,-0.804,-0.0505,0.7785,-0.3515,-0.4275,-0.189,0.182,-0.0455,0.0655,-0.0155,0.01,0.1745,-0.132,0.018
-0.739,-0.799,-0.06,0.769,-0.3395,-0.4295,-0.195,0.1785,-0.0435,0.0615,-0.017,0.0085,0.1735,-0.1275,0.0165
-0.765,-0.812,-0.047,0.7885,-0.359,-0.43,-0.1955,0.179,-0.048,0.0635,-0.018,0.0095,0.1775,-0.1305,0.021
-0.783,-0.811,-0.0275,0.7965,-0.378,-0.419,-0.1935,0.176,-0.045,0.0625,-0.0195,0.0095,0.175,-0.1315,0.0225
-0.7995,-0.8265,-0.027,0.813,-0.3865,-0.427,-0.195,0.166,-0.0515,0.053,-0.027,0.0035,0.1725,-0.1355,0.023
-0.805,-0.8365,-0.031,0.8205,-0.3875,-0.4335,-0.202,0.169,-0.0565,0.053,-0.0265,0.0,0.1735,-0.13,0.022
-0.7975,-0.838,-0.0405,0.8175,-0.379,-0.439,-0.202,0.1635,-0.0595,0.051,-0.0275,-0.0025,0.168,-0.1345,0.021
-0.796,-0.84,-0.044,0.818,-0.3765,-0.442,-0.1985,0.1615,-0.0615,0.051,-0.027,-0.002,0.17,-0.142,0.0245
-0.786,-0.8225,-0.0365,0.804,-0.375,-0.4295,-0.1975,0.1665,-0.0555,0.0545,-0.024,0.0015,0.172,-0.1395,0.027
-0.798,-0.83,-0.032,0.814,-0.3835,-0.431,-0.2035,0.162,-0.061,0.0495,-0.028,-0.003,0.17,-0.1365,0.025
-0.7915,-0.8305,-0.0385,0.811,-0.3765,-0.4345,-0.195,0.1665,-0.057,0.054,-0.0245,0.0005,0.1705,-0.1375,0.025
-0.766,-0.8195,-0.053,0.7925,-0.357,-0.436,-0.1905,0.17,-0.0535,0.0585,-0.02,0.0065,0.17,-0.146,0.0265
-0.7685,-0.82,-0.052,0.794,-0.3585,-0.436,-0.1895,0.173,-0.051,0.0615,-0.016,0.007,0.1705,-0.1525,0.027
-0.774,-0.8125,-0.0385,0.793,-0.368,-0.4255,-0.1915,0.1675,-0.056,0.059,-0.02,0.003,0.1665,-0.1465,0.026
-0.787,-0.82,-0.0335,0.8035,-0.377,-0.427,-0.1995,0.1605,-0.063,0.051,-0.028,-0.0025,0.165,-0.142,0.0265
-0.7935,-0.834,-0.0405,0.8135,-0.3765,-0.437,-0.2035,0.158,-0.065,0.0465,-0.032,-0.008,0.165,-0.136,0.027
-0.7635,-0.821,-0.0575,0.792,-0.3535,-0.4395,-0.206,0.153,-0.0735,0.0425,-0.036,-0.0105,0.169,-0.1285,0.0285
-0.769,-0.824,-0.055,0.7965,-0.3575,-0.4395,-0.2055,0.1555,-0.071,0.044,-0.0335,-0.009,0.1715,-0.1335,0.03
-0.7965,-0.8265,-0.0295,0.811,-0.384,-0.428,-0.1945,0.1625,-0.063,0.051,-0.0255,-0.0005,0.1675,-0.1345,0.0265
-0.813,-0.8325,-0.0195,0.8225,-0.397,-0.426,-0.1925,0.1635,-0.0625,0.053,-0.0245,0.001,0.1635,-0.1405,0.023
-0.8135,-0.8345,-0.021,0.8235,-0.3965,-0.4275,-0.1995,0.16,-0.0675,0.0495,-0.027,-0.005,0.16,-0.14,0.0245
-0.788,-0.8115,-0.0235,0.7995,-0.3825,-0.4175,-0.1945,0.163,-0.0665,0.052,-0.024,-0.0035,0.158,-0.131,0.026
-0.778,-0.807,-0.029,0.7925,-0.375,-0.418,-0.195,0.162,-0.067,0.0525,-0.025,-0.004,0.1615,-0.1295,0.0275
-0.7895,-0.8205,-0.0315,0.8045,-0.379,-0.426,-0.193,0.1595,-0.0715,0.05,-0.0285,-0.0045,0.1635,-0.133,0.03
-0.7915,-0.8245,-0.0335,0.8075,-0.379,-0.429,-0.184,0.164,-0.0675,0.055,-0.025,-0.0005,0.16,-0.1355,0.0265
-0.7975,-0.8395,-0.042,0.818,-0.378,-0.4405,-0.189,0.1645,-0.0685,0.054,-0.0265,-0.0015,0.161,-0.1415,0.028
-0.8295,-0.8825,-0.053,0.8555,-0.3885,-0.4675,-0.204,0.1485,-0.0825,0.0385,-0.0415,-0.0175,0.1595,-0.147,0.0275
-0.818,-0.8745,-0.0565,0.846,-0.381,-0.4655,-0.2085,0.142,-0.089,0.0325,-0.0485,-0.0235,0.158,-0.139,0.027
-0.792,-0.8495,-0.0575,0.8205,-0.3675,-0.4535,-0.204,0.146,-0.085,0.0355,-0.0465,-0.0205,0.158,-0.138,0.0275
-0.7805,-0.834,-0.0535,0.807,-0.364,-0.444,-0.2025,0.151,-0.079,0.042,-0.042,-0.016,0.157,-0.1425,0.027
-0.7905,-0.844,-0.053,0.817,-0.369,-0.4485,-0.2065,0.15,-0.0805,0.0415,-0.0445,-0.0165,0.157,-0.151,0.027
-0.792,-0.856,-0.064,0.8235,-0.364,-0.46,-0.2035,0.1455,-0.084,0.038,-0.0485,-0.0205,0.158,-0.1515,0.0245
-0.7625,-0.8335,-0.071,0.7975,-0.346,-0.452,-0.205,0.147,-0.0855,0.042,-0.043,-0.0155,0.1575,-0.155,0.028
-0.781,-0.8445,-0.0635,0.8125,-0.359,-0.454,-0.208,0.1505,-0.082,0.0435,-0.0415,-0.0165,0.158,-0.1535,0.0255
-0.794,-0.844,-0.0505,0.819,-0.372,-0.447,-0.196,0.1575,-0.074,0.05,-0.036,-0.0105,0.159,-0.1435,0.025
-0.802,-0.841,-0.039,0.8215,-0.3815,-0.44,-0.193,0.1575,-0.074,0.0535,-0.032,-0.0065,0.156,-0.1495,0.028
-0.8195,-0.854,-0.0345,0.8365,-0.3925,-0.4445,-0.199,0.1535,-0.0775,0.05,-0.035,-0.012,0.1575,-0.146,0.0275
-0.8335,-0.8745,-0.041,0.8535,-0.3965,-0.4575,-0.2065,0.1435,-0.088,0.041,-0.0435,-0.0185,0.161,-0.146,0.0275
-0.8105,-0.853,-0.042,0.8315,-0.3845,-0.4475,-0.2045,0.151,-0.081,0.0485,-0.0375,-0.0125,0.16,-0.1485,0.025
-0.772,-0.8165,-0.0445,0.794,-0.364,-0.4305,-0.1935,0.166,-0.068,0.061,-0.025,-0.0035,0.159,-0.15,0.025
-0.7695,-0.8165,-0.0475,0.793,-0.3615,-0.432,-0.1865,0.164,-0.071,0.061,-0.0255,-0.004,0.1575,-0.1555,0.025
-0.774,-0.8135,-0.0395,0.7935,-0.3675,-0.4265,-0.1875,0.1645,-0.069,0.061,-0.028,-0.006,0.1535,-0.15,0.023
-0.7985,-0.83,-0.032,0.814,-0.3835,-0.431,-0.191,0.161,-0.0725,0.058,-0.0315,-0.01,0.154,-0.1445,0.0235
-0.8165,-0.84,-0.0235,0.828,-0.397,-0.4315,-0.19,0.162,-0.074,0.06,-0.0295,-0.008,0.155,-0.1435,0.025
-0.822,-0.8475,-0.026,0.8345,-0.398,-0.4365,-0.1945,0.1595,-0.076,0.0565,-0.03,-0.0105,0.154,-0.1415,0.0255
-0.832,-0.8625,-0.031,0.847,-0.4005,-0.4465,-0.2005,0.152,-0.08,0.0495,-0.0345,-0.0175,0.155,-0.141,0.0245
-0.853,-0.8855,-0.0325,0.869,-0.4105,-0.459,-0.2055,0.148,-0.085,0.0435,-0.042,-0.0235,0.1515,-0.147,0.0225
-0.845,-0.8785,-0.0335,0.8615,-0.406,-0.456,-0.2005,0.1495,-0.0835,0.0455,-0.0415,-0.0225,0.151,-0.1505,0.0225
-0.8025,-0.834,-0.0315,0.818,-0.3855,-0.4325,-0.1895,0.1665,-0.065,0.0595,-0.0275,-0.009,0.152,-0.1505,0.0215
-0.799,-0.831,-0.032,0.815,-0.384,-0.4315,-0.194,0.1645,-0.0675,0.059,-0.0285,-0.01,0.1515,-0.149,0.0245
-0.8175,-0.8475,-0.03,0.8325,-0.394,-0.4385,-0.203,0.1565,-0.075,0.053,-0.0345,-0.0165,0.1525,-0.1545,0.0265
-0.8175,-0.8555,-0.0375,0.836,-0.39,-0.4465,-0.2025,0.159,-0.0655,0.0535,-0.034,-0.0175,0.1495,-0.159,0.021
-0.8045,-0.849,-0.0445,0.8265,-0.3805,-0.4465,-0.197,0.1615,-0.066,0.0535,-0.0335,-0.0165,0.1465,-0.154,0.0225
-0.7995,-0.839,-0.04,0.819,-0.38,-0.4395,-0.194,0.168,-0.0635,0.0585,-0.029,-0.011,0.15,-0.1555,0.023
-0.7845,-0.8435,-0.059,0.814,-0.363,-0.4515,-0.1985,0.1605,-0.0665,0.055,-0.0325,-0.0155,0.1545,-0.1625,0.026
-0.756,-0.8295,-0.0735,0.7925,-0.3415,-0.4515,-0.197,0.161,-0.067,0.053,-0.0335,-0.016,0.1535,-0.162,0.0275
-0.78,-0.829,-0.049,0.8045,-0.366,-0.439,-0.1915,0.1675,-0.062,0.058,-0.029,-0.012,0.153,-0.1535,0.027
-0.8155,-0.8455,-0.0305,0.83,-0.3925,-0.438,-0.1905,0.1695,-0.0615,0.0605,-0.0275,-0.01,0.1525,-0.151,0.027
-0.7995,-0.833,-0.0335,0.816,-0.383,-0.4335,-0.1815,0.175,-0.0545,0.0655,-0.023,-0.005,0.1495,-0.151,0.024
-0.7835,-0.8255,-0.042,0.804,-0.3715,-0.4335,-0.184,0.1715,-0.06,0.0625,-0.0265,-0.009,0.1485,-0.1505,0.026
-0.7915,-0.8345,-0.043,0.8125,-0.3745,-0.4385,-0.1965,0.1695,-0.0655,0.058,-0.031,-0.0145,0.1505,-0.1495,0.0265
-0.8045,-0.8405,-0.036,0.8225,-0.3845,-0.4385,-0.195,0.17,-0.062,0.0585,-0.0295,-0.0155,0.151,-0.145,0.0225
-0.809,-0.847,-0.038,0.828,-0.386,-0.4425,-0.195,0.1665,-0.0675,0.057,-0.031,-0.0175,0.1505,-0.1475,0.022
-0.8035,-0.8465,-0.043,0.825,-0.3805,-0.4445,-0.1925,0.171,-0.0625,0.0615,-0.0295,-0.0155,0.1515,-0.147,0.025
-0.799,-0.8395,-0.0405,0.819,-0.3795,-0.44,-0.191,0.175,-0.0555,0.0625,-0.0285,-0.0145,0.151,-0.141,0.0205
-0.7995,-0.835,-0.035,0.817,-0.3825,-0.435,-0.185,0.1735,-0.059,0.0585,-0.03,-0.0165,0.1495,-0.1395,0.0195
-0.7995,-0.8395,-0.0395,0.8195,-0.3805,-0.4395,-0.189,0.1705,-0.063,0.0555,-0.0335,-0.0195,0.1485,-0.143,0.02
-0.797,-0.8495,-0.0525,0.823,-0.3725,-0.451,-0.2035,0.1655,-0.0695,0.051,-0.037,-0.023,0.1495,-0.15,0.021
-0.798,-0.8455,-0.0475,0.8215,-0.3755,-0.4465,-0.1985,0.1695,-0.0605,0.0525,-0.036,-0.0215,0.1525,-0.148,0.0225
-0.7985,-0.838,-0.0395,0.818,-0.38,-0.4385,-0.1975,0.175,-0.055,0.058,-0.0345,-0.019,0.152,-0.1475,0.0225
-0.802,-0.8425,-0.0405,0.822,-0.381,-0.4415,-0.195,0.173,-0.057,0.057,-0.0345,-0.0185,0.15,-0.1525,0.022
-0.797,-0.84,-0.043,0.818,-0.377,-0.4415,-0.186,0.1765,-0.0515,0.061,-0.0305,-0.0135,0.151,-0.154,0.0235
-0.7975,-0.846,-0.0485,0.8215,-0.375,-0.4475,-0.1865,0.179,-0.052,0.065,-0.0285,-0.011,0.1535,-0.157,0.0245
-0.7995,-0.8385,-0.039,0.8185,-0.3805,-0.4385,-0.1925,0.178,-0.053,0.0625,-0.0295,-0.0135,0.151,-0.149,0.0205
-0.7865,-0.8245,-0.038,0.805,-0.3745,-0.431,-0.194,0.1785,-0.052,0.065,-0.026,-0.011,0.1515,-0.152,0.023
-0.791,-0.833,-0.042,0.8115,-0.3745,-0.4375,-0.192,0.1805,-0.05,0.0665,-0.0255,-0.01,0.1555,-0.158,0.0225
-0.798,-0.838,-0.04,0.8175,-0.3795,-0.4385,-0.1885,0.181,-0.051,0.066,-0.026,-0.0105,0.1545,-0.154,0.024
-0.7995,-0.8405,-0.0405,0.82,-0.38,-0.4405,-0.1855,0.182,-0.052,0.0675,-0.025,-0.0095,0.153,-0.1565,0.021
-0.807,-0.8455,-0.0385,0.826,-0.3845,-0.442,-0.185,0.1855,-0.048,0.068,-0.0235,-0.0095,0.154,-0.156,0.0155
-0.8115,-0.8505,-0.0385,0.831,-0.3865,-0.4445,-0.1845,0.179,-0.0555,0.065,-0.0245,-0.011,0.1545,-0.155,0.021
-0.8095,-0.8415,-0.032,0.8255,-0.3885,-0.437,-0.1875,0.1795,-0.056,0.066,-0.0225,-0.01,0.154,-0.154,0.0195
-0.813,-0.8395,-0.0265,0.826,-0.3935,-0.433,-0.1835,0.185,-0.0465,0.0675,-0.02,-0.0095,0.1535,-0.15,0.0115
-0.8165,-0.841,-0.025,0.8285,-0.396,-0.433,-0.188,0.182,-0.0505,0.0645,-0.0235,-0.012,0.1525,-0.145,0.006
-0.8085,-0.842,-0.0335,0.825,-0.3875,-0.438,-0.193,0.1825,-0.052,0.066,-0.0235,-0.008,0.1545,-0.149,0.0065
-0.797,-0.843,-0.0465,0.82,-0.3755,-0.4445,-0.189,0.185,-0.0485,0.071,-0.0195,-0.0045,0.1555,-0.1525,0.003
-0.7755,-0.8285,-0.0525,0.802,-0.362,-0.4405,-0.1915,0.1885,-0.045,0.0725,-0.0165,-0.003,0.152,-0.1465,-0.001
-0.77,-0.8185,-0.048,0.794,-0.361,-0.433,-0.192,0.1905,-0.0415,0.072,-0.018,-0.004,0.1515,-0.146,-0.002
-0.796,-0.833,-0.0365,0.8145,-0.38,-0.435,-0.1845,0.1885,-0.0435,0.069,-0.0225,-0.007,0.152,-0.143,-0.0055
-0.8035,-0.841,-0.038,0.822,-0.383,-0.4395,-0.1745,0.191,-0.04,0.07,-0.02,-0.006,0.151,-0.151,-0.009
-0.788,-0.8305,-0.0425,0.809,-0.373,-0.4365,-0.18,0.193,-0.0375,0.0725,-0.0175,-0.0045,0.152,-0.1615,-0.007
-0.786,-0.828,-0.042,0.807,-0.3725,-0.435,-0.1705,0.191,-0.04,0.0695,-0.019,-0.0055,0.148,-0.154,-0.0075
-0.7755,-0.816,-0.0405,0.7955,-0.3675,-0.4285,-0.1705,0.1985,-0.031,0.0765,-0.013,0.0,0.15,-0.1605,-0.01
-0.7785,-0.8205,-0.042,0.7995,-0.3685,-0.4315,-0.1865,0.1995,-0.03,0.0765,-0.014,-0.001,0.1535,-0.1685,-0.009
-0.806,-0.8455,-0.0395,0.8255,-0.3835,-0.4425,-0.189,0.189,-0.0405,0.066,-0.0245,-0.013,0.15,-0.1625,-0.012
-0.8175,-0.859,-0.0415,0.838,-0.388,-0.45,-0.1925,0.1845,-0.0445,0.0595,-0.029,-0.0175,0.1495,-0.162,-0.011
-0.795,-0.8425,-0.0475,0.8185,-0.374,-0.4445,-0.188,0.1905,-0.037,0.066,-0.023,-0.0105,0.151,-0.162,-0.0115
-0.763,-0.8095,-0.046,0.786,-0.3585,-0.428,-0.181,0.2025,-0.0275,0.078,-0.0125,-0.0005,0.1545,-0.16,-0.0195
-0.775,-0.818,-0.043,0.7965,-0.366,-0.4305,-0.1865,0.2,-0.032,0.0735,-0.0145,-0.001,0.1535,-0.155,-0.028
-0.789,-0.8325,-0.0435,0.8105,-0.373,-0.438,-0.188,0.1905,-0.0415,0.066,-0.022,-0.0085,0.151,-0.153,-0.0355
-0.7965,-0.841,-0.045,0.8185,-0.376,-0.443,-0.1955,0.188,-0.0445,0.0625,-0.0235,-0.012,0.15,-0.1525,-0.038
-0.807,-0.8465,-0.04,0.8265,-0.3835,-0.4435,-0.1925,0.19,-0.044,0.063,-0.0225,-0.0105,0.1495,-0.148,-0.0425
-0.793,-0.834,-0.041,0.8135,-0.3765,-0.4375,-0.17,0.1955,-0.036,0.0715,-0.0145,-0.0035,0.152,-0.148,-0.0455
-0.788,-0.833,-0.045,0.81,-0.372,-0.439,-0.187,0.1945,-0.0375,0.071,-0.0165,-0.0045,0.154,-0.148,-0.046
-0.786,-0.8345,-0.0485,0.81,-0.369,-0.4415,-0.194,0.1915,-0.0425,0.067,-0.0205,-0.0085,0.153,-0.152,-0.047
-0.776,-0.823,-0.0465,0.7995,-0.365,-0.435,-0.1795,0.1955,-0.036,0.0725,-0.0145,-0.0025,0.152,-0.152,-0.049
-0.7905,-0.828,-0.037,0.809,-0.377,-0.4325,-0.1745,0.1975,-0.0355,0.073,-0.015,-0.002,0.15,-0.149,-0.052
-0.816,-0.856,-0.0405,0.836,-0.388,-0.4485,-0.178,0.189,-0.043,0.064,-0.023,-0.01,0.148,-0.155,-0.054
-0.82,-0.87,-0.05,0.8445,-0.3855,-0.46,-0.1935,0.183,-0.0495,0.0585,-0.029,-0.016,0.1515,-0.1565,-0.0515
-0.8155,-0.8725,-0.0575,0.8435,-0.379,-0.4645,-0.194,0.183,-0.05,0.0575,-0.0295,-0.016,0.152,-0.161,-0.0485
-0.806,-0.8655,-0.059,0.8355,-0.3735,-0.4625,-0.187,0.1845,-0.046,0.0615,-0.027,-0.0125,0.15,-0.168,-0.0505
-0.7805,-0.8315,-0.0505,0.806,-0.365,-0.441,-0.181,0.1905,-0.0415,0.069,-0.021,-0.006,0.15,-0.163,-0.0495
-0.7695,-0.8125,-0.043,0.791,-0.3635,-0.428,-0.1815,0.19,-0.041,0.069,-0.02,-0.005,0.15,-0.158,-0.049
-0.7855,-0.837,-0.0515,0.811,-0.367,-0.444,-0.19,0.1835,-0.0495,0.061,-0.0265,-0.012,0.151,-0.16,-0.049
-0.787,-0.8545,-0.0675,0.8205,-0.36,-0.461,-0.195,0.1785,-0.055,0.054,-0.03,-0.018,0.15,-0.1595,-0.05
-0.774,-0.8625,-0.0885,0.818,-0.343,-0.4755,-0.2035,0.172,-0.062,0.0495,-0.0365,-0.0235,0.1505,-0.1615,-0.049
-0.769,-0.864,-0.095,0.816,-0.3375,-0.4795,-0.2085,0.1665,-0.068,0.0435,-0.042,-0.0275,0.152,-0.162,-0.0485
-0.788,-0.8555,-0.0675,0.8215,-0.3605,-0.4615,-0.202,0.173,-0.0615,0.048,-0.0355,-0.021,0.1545,-0.1585,-0.0485
-0.816,-0.8555,-0.0395,0.8355,-0.3885,-0.4475,-0.197,0.1815,-0.052,0.058,-0.0265,-0.011,0.1535,-0.159,-0.046
-0.8045,-0.852,-0.0475,0.828,-0.3785,-0.45,-0.192,0.181,-0.0535,0.058,-0.029,-0.0135,0.1515,-0.1615,-0.0505
-0.784,-0.8505,-0.067,0.817,-0.3585,-0.459,-0.215,0.1745,-0.0595,0.051,-0.0345,-0.02,0.155,-0.165,-0.048
-0.8005,-0.8535,-0.0535,0.8265,-0.3735,-0.4535,-0.2025,0.1685,-0.0635,0.0485,-0.035,-0.02,0.1515,-0.1635,-0.049
-0.818,-0.8615,-0.0435,0.8395,-0.3875,-0.4525,-0.1675,0.173,-0.066,0.0535,-0.0325,-0.0165,0.1495,-0.1605,-0.053
-0.8,-0.8435,-0.0435,0.8215,-0.3785,-0.4435,-0.1895,0.183,-0.0515,0.0645,-0.022,-0.0075,0.154,-0.1565,-0.0505
-0.793,-0.828,-0.035,0.8105,-0.379,-0.4315,-0.191,0.1895,-0.04,0.071,-0.0165,0.0,0.1535,-0.146,-0.049
-0.797,-0.828,-0.031,0.8125,-0.3835,-0.4295,-0.19,0.183,-0.051,0.064,-0.021,-0.004,0.1555,-0.136,-0.0455
-0.795,-0.824,-0.0285,0.809,-0.3835,-0.4265,-0.194,0.178,-0.056,0.0615,-0.0235,-0.007,0.1545,-0.1335,-0.047
-0.803,-0.8295,-0.026,0.816,-0.3885,-0.428,-0.1845,0.1845,-0.0475,0.065,-0.023,-0.0065,0.1515,-0.1345,-0.0485
-0.8105,-0.843,-0.0325,0.8265,-0.3895,-0.438,-0.189,0.1805,-0.0525,0.06,-0.0265,-0.009,0.154,-0.1425,-0.043
-0.8235,-0.8575,-0.0345,0.84,-0.3945,-0.446,-0.192,0.174,-0.058,0.056,-0.031,-0.0135,0.151,-0.152,-0.0435
-0.815,-0.8455,-0.0305,0.83,-0.3925,-0.438,-0.1855,0.18,-0.05,0.062,-0.0265,-0.009,0.1475,-0.1595,-0.0435
-0.808,-0.8435,-0.0355,0.8255,-0.3865,-0.4395,-0.1775,0.185,-0.048,0.065,-0.024,-0.003,0.1485,-0.167,-0.0425
-0.815,-0.8525,-0.0375,0.8335,-0.389,-0.445,-0.187,0.1825,-0.0455,0.064,-0.0245,-0.005,0.151,-0.1705,-0.041
-0.82,-0.8595,-0.0395,0.839,-0.3905,-0.4495,-0.186,0.181,-0.0495,0.0635,-0.0255,-0.0075,0.152,-0.1705,-0.04
-0.827,-0.868,-0.0405,0.8475,-0.3935,-0.4545,-0.188,0.1725,-0.061,0.054,-0.0335,-0.015,0.15,-0.167,-0.039
-0.8215,-0.856,-0.035,0.8385,-0.3935,-0.4455,-0.2,0.1645,-0.071,0.048,-0.0385,-0.02,0.15,-0.1615,-0.037
-0.8105,-0.842,-0.0315,0.826,-0.3895,-0.437,-0.196,0.1685,-0.0665,0.052,-0.036,-0.017,0.15,-0.156,-0.038
-0.8035,-0.8475,-0.044,0.8255,-0.3795,-0.446,-0.1995,0.1655,-0.069,0.0495,-0.0385,-0.019,0.1505,-0.162,-0.0345
-0.8065,-0.8545,-0.048,0.8305,-0.3795,-0.4515,-0.1975,0.1635,-0.076,0.049,-0.039,-0.023,0.146,-0.163,-0.038
-0.81,-0.8535,-0.043,0.8315,-0.3835,-0.448,-0.197,0.166,-0.0725,0.05,-0.0375,-0.022,0.147,-0.157,-0.0415
-0.7985,-0.8445,-0.046,0.8215,-0.3765,-0.445,-0.201,0.1645,-0.0735,0.0495,-0.036,-0.021,0.149,-0.1565,-0.0405
-0.7985,-0.8465,-0.0485,0.8225,-0.3755,-0.4475,-0.1985,0.1655,-0.072,0.0515,-0.0345,-0.0215,0.1465,-0.156,-0.042
-0.795,-0.85,-0.0555,0.822,-0.37,-0.4525,-0.197,0.1675,-0.07,0.054,-0.0325,-0.0185,0.147,-0.161,-0.0415
-0.7985,-0.8465,-0.0485,0.8225,-0.375,-0.4475,-0.197,0.166,-0.071,0.0545,-0.032,-0.0165,0.148,-0.1615,-0.0405
-0.8035,-0.8435,-0.04,0.8235,-0.382,-0.442,-0.1975,0.166,-0.0715,0.055,-0.034,-0.016,0.1465,-0.1605,-0.0385
-0.796,-0.8305,-0.034,0.813,-0.381,-0.432,-0.1915,0.17,-0.0665,0.0585,-0.029,-0.0115,0.1455,-0.1615,-0.04
-0.805,-0.8365,-0.0315,0.8205,-0.387,-0.434,-0.197,0.1645,-0.068,0.0535,-0.032,-0.016,0.146,-0.163,-0.0405
-0.815,-0.85,-0.035,0.832,-0.3905,-0.4425,-0.2025,0.162,-0.0735,0.0495,-0.0385,-0.0215,0.145,-0.1665,-0.04
-0.81,-0.8435,-0.034,0.8265,-0.388,-0.439,-0.1985,0.161,-0.07,0.049,-0.0375,-0.0195,0.147,-0.16,-0.0385
-0.792,-0.8305,-0.0385,0.811,-0.377,-0.4345,-0.196,0.1645,-0.0665,0.054,-0.033,-0.016,0.146,-0.1555,-0.037
-0.7955,-0.8375,-0.042,0.816,-0.377,-0.4395,-0.194,0.1665,-0.065,0.056,-0.03,-0.0125,0.146,-0.1565,-0.038
-0.7955,-0.839,-0.044,0.817,-0.376,-0.442,-0.1955,0.164,-0.0655,0.055,-0.032,-0.0145,0.1455,-0.1565,-0.037
-0.799,-0.842,-0.043,0.82,-0.3785,-0.4425,-0.1965,0.16,-0.0715,0.05,-0.0375,-0.0195,0.144,-0.1595,-0.036
-0.8095,-0.855,-0.0455,0.832,-0.3825,-0.45,-0.196,0.1575,-0.0745,0.046,-0.0415,-0.02,0.144,-0.1665,-0.035
-0.811,-0.8585,-0.0475,0.8345,-0.382,-0.453,-0.198,0.158,-0.0755,0.046,-0.042,-0.021,0.145,-0.167,-0.034
-0.8025,-0.85,-0.0475,0.826,-0.3775,-0.449,-0.1905,0.1595,-0.071,0.0505,-0.037,-0.015,0.147,-0.1635,-0.0335
-0.7885,-0.8355,-0.0475,0.812,-0.371,-0.4415,-0.189,0.1635,-0.0655,0.053,-0.0315,-0.011,0.148,-0.1635,-0.0345
-0.797,-0.842,-0.045,0.8195,-0.3765,-0.4435,-0.194,0.1575,-0.0765,0.0495,-0.035,-0.015,0.147,-0.162,-0.0335
-0.7985,-0.8425,-0.0445,0.8205,-0.3775,-0.4435,-0.1985,0.154,-0.0785,0.047,-0.037,-0.0165,0.146,-0.1565,-0.034
-0.798,-0.845,-0.047,0.8215,-0.3755,-0.446,-0.2055,0.1555,-0.078,0.0445,-0.038,-0.0185,0.1465,-0.155,-0.0325
-0.7855,-0.8385,-0.0535,0.812,-0.3665,-0.446,-0.188,0.162,-0.071,0.0525,-0.0315,-0.0115,0.1455,-0.16,-0.034
-0.79,-0.834,-0.044,0.8115,-0.3735,-0.439,-0.1855,0.162,-0.072,0.052,-0.031,-0.012,0.143,-0.1565,-0.0375
-0.8095,-0.85,-0.041,0.8295,-0.3845,-0.4455,-0.195,0.1535,-0.082,0.044,-0.0385,-0.0185,0.14,-0.1535,-0.037
-0.813,-0.8535,-0.0405,0.833,-0.3865,-0.447,-0.198,0.152,-0.0825,0.0425,-0.0405,-0.0195,0.141,-0.152,-0.036
-0.8165,-0.857,-0.04,0.8365,-0.3885,-0.4485,-0.2035,0.1485,-0.089,0.037,-0.0425,-0.023,0.1435,-0.1505,-0.0345
-0.801,-0.8435,-0.0425,0.822,-0.3795,-0.443,-0.2025,0.1515,-0.0855,0.042,-0.041,-0.018,0.1445,-0.1545,-0.034
-0.8085,-0.8485,-0.04,0.8285,-0.3845,-0.4445,-0.208,0.1525,-0.0845,0.0405,-0.0425,-0.0185,0.144,-0.156,-0.032
-0.8095,-0.853,-0.044,0.831,-0.383,-0.4485,-0.2075,0.154,-0.083,0.038,-0.043,-0.02,0.1425,-0.157,-0.0325
-0.8075,-0.853,-0.0455,0.83,-0.3815,-0.449,-0.2065,0.1495,-0.084,0.037,-0.0445,-0.022,0.146,-0.157,-0.031
-0.8355,-0.882,-0.0465,0.8585,-0.3945,-0.4645,-0.214,0.134,-0.1025,0.0235,-0.0555,-0.034,0.1475,-0.16,-0.028
-0.808,-0.8545,-0.047,0.831,-0.381,-0.4505,-0.212,0.142,-0.0955,0.03,-0.0485,-0.0265,0.1455,-0.1655,-0.0295
-0.7785,-0.8335,-0.0545,0.806,-0.3625,-0.4445,-0.207,0.1475,-0.0885,0.035,-0.0425,-0.0205,0.144,-0.1685,-0.03
-0.8015,-0.855,-0.0535,0.828,-0.3745,-0.454,-0.2095,0.141,-0.094,0.03,-0.05,-0.026,0.143,-0.17,-0.0285
-0.8105,-0.857,-0.0465,0.8335,-0.382,-0.4515,-0.212,0.14,-0.0925,0.0315,-0.0495,-0.0255,0.1425,-0.1725,-0.0285
-0.8165,-0.8585,-0.042,0.837,-0.3875,-0.4505,-0.209,0.1415,-0.092,0.032,-0.048,-0.024,0.1425,-0.1745,-0.0285
-0.804,-0.8585,-0.054,0.831,-0.3755,-0.456,-0.2065,0.1485,-0.0845,0.036,-0.0445,-0.02,0.143,-0.1795,-0.027
-0.784,-0.857,-0.073,0.8205,-0.3555,-0.465,-0.2125,0.1395,-0.085,0.0325,-0.047,-0.023,0.141,-0.181,-0.027
-0.783,-0.8485,-0.0655,0.8155,-0.359,-0.457,-0.204,0.1455,-0.086,0.037,-0.0425,-0.0195,0.141,-0.178,-0.0265
-0.784,-0.829,-0.045,0.8065,-0.37,-0.437,-0.187,0.1615,-0.078,0.0495,-0.0315,-0.008,0.143,-0.175,-0.0275
-0.807,-0.8425,-0.0355,0.8245,-0.386,-0.439,-0.1935,0.1515,-0.0825,0.0435,-0.0365,-0.0135,0.1425,-0.167,-0.0275
-0.8085,-0.8535,-0.045,0.831,-0.382,-0.4495,-0.2,0.1475,-0.086,0.0395,-0.042,-0.0185,0.1415,-0.1625,-0.028
-0.7955,-0.849,-0.0535,0.822,-0.3715,-0.451,-0.206,0.1515,-0.083,0.04,-0.039,-0.017,0.143,-0.163,-0.0275
-0.805,-0.8595,-0.055,0.832,-0.3755,-0.457,-0.207,0.15,-0.085,0.04,-0.039,-0.0185,0.143,-0.164,-0.027
-0.798,-0.851,-0.0525,0.8245,-0.373,-0.452,-0.2,0.151,-0.086,0.0415,-0.038,-0.0165,0.1415,-0.1615,-0.026
-0.783,-0.8335,-0.0505,0.808,-0.3665,-0.4425,-0.201,0.1525,-0.0845,0.042,-0.038,-0.0135,0.142,-0.1575,-0.0245
-0.7855,-0.832,-0.047,0.8085,-0.3695,-0.4395,-0.201,0.1505,-0.084,0.041,-0.039,-0.0145,0.1405,-0.1545,-0.0275
-0.795,-0.839,-0.044,0.8165,-0.3755,-0.4415,-0.208,0.1515,-0.0855,0.0405,-0.039,-0.016,0.1395,-0.161,-0.027
-0.801,-0.8485,-0.0475,0.8245,-0.377,-0.448,-0.206,0.1485,-0.0905,0.04,-0.039,-0.0165,0.1395,-0.1685,-0.027
-0.807,-0.8535,-0.0465,0.83,-0.3805,-0.45,-0.1995,0.1515,-0.085,0.041,-0.0375,-0.0135,0.142,-0.17,-0.025
-0.806,-0.844,-0.038,0.825,-0.3845,-0.441,-0.198,0.1555,-0.0775,0.043,-0.0355,-0.0115,0.146,-0.17,-0.024
-0.8015,-0.8445,-0.043,0.823,-0.3795,-0.444,-0.202,0.149,-0.086,0.0385,-0.0405,-0.0165,0.144,-0.1715,-0.025
-0.8005,-0.857,-0.0565,0.8285,-0.3725,-0.4565,-0.213,0.1455,-0.094,0.034,-0.0435,-0.022,0.1445,-0.176,-0.0255
-0.798,-0.857,-0.059,0.8275,-0.37,-0.458,-0.213,0.146,-0.0925,0.0345,-0.043,-0.0215,0.1435,-0.1785,-0.027
-0.7995,-0.858,-0.0585,0.829,-0.371,-0.458,-0.214,0.143,-0.0965,0.034,-0.046,-0.0225,0.138,-0.178,-0.024
-0.805,-0.8585,-0.0535,0.8315,-0.376,-0.456,-0.2145,0.1385,-0.1035,0.0305,-0.048,-0.0235,0.14,-0.176,-0.0225
-0.807,-0.859,-0.052,0.833,-0.378,-0.4555,-0.218,0.1385,-0.102,0.03,-0.049,-0.0245,0.1425,-0.182,-0.021
-0.804,-0.8595,-0.055,0.8315,-0.375,-0.457,-0.2225,0.139,-0.101,0.0295,-0.0495,-0.026,0.1415,-0.1805,-0.0235
-0.798,-0.8595,-0.061,0.8285,-0.3685,-0.4605,-0.2225,0.143,-0.0955,0.0315,-0.0455,-0.024,0.145,-0.1765,-0.024
-0.7905,-0.8545,-0.064,0.8225,-0.3635,-0.4595,-0.226,0.142,-0.0975,0.0315,-0.046,-0.0265,0.145,-0.171,-0.023
-0.7795,-0.84,-0.0605,0.8095,-0.36,-0.45,-0.2125,0.1435,-0.094,0.036,-0.043,-0.0225,0.1425,-0.1555,-0.025
-0.7695,-0.833,-0.0635,0.801,-0.353,-0.448,-0.203,0.1485,-0.0865,0.0435,-0.0365,-0.0145,0.1435,-0.153,-0.0235
-0.764,-0.844,-0.08,0.804,-0.3425,-0.462,-0.214,0.1415,-0.094,0.036,-0.042,-0.021,0.145,-0.1545,-0.0235
-0.779,-0.8535,-0.0745,0.816,-0.3525,-0.464,-0.2185,0.1365,-0.101,0.031,-0.048,-0.026,0.143,-0.157,-0.0235
-0.809,-0.8525,-0.0435,0.8305,-0.383,-0.448,-0.2155,0.1345,-0.104,0.0315,-0.0495,-0.025,0.1405,-0.1605,-0.0215
-0.816,-0.8445,-0.029,0.83,-0.3935,-0.4365,-0.206,0.1435,-0.092,0.039,-0.0425,-0.018,0.1405,-0.1535,-0.024
-0.8045,-0.8355,-0.031,0.82,-0.387,-0.4335,-0.1995,0.1465,-0.09,0.041,-0.0405,-0.0165,0.1395,-0.148,-0.0265
-0.801,-0.8445,-0.0435,0.8225,-0.379,-0.444,-0.2085,0.141,-0.0945,0.0365,-0.0445,-0.0205,0.1395,-0.1575,-0.0235
-0.799,-0.8485,-0.0495,0.8235,-0.3755,-0.449,-0.2125,0.143,-0.0915,0.0375,-0.0435,-0.018,0.139,-0.164,-0.023
-0.795,-0.843,-0.048,0.8185,-0.374,-0.4455,-0.206,0.143,-0.093,0.0365,-0.042,-0.019,0.139,-0.1625,-0.0235
-0.7965,-0.8465,-0.05,0.8215,-0.3735,-0.4485,-0.202,0.1455,-0.0925,0.039,-0.039,-0.017,0.141,-0.165,-0.022
-0.7995,-0.8475,-0.048,0.8235,-0.376,-0.448,-0.207,0.141,-0.095,0.0355,-0.044,-0.017,0.141,-0.1615,-0.021
-0.793,-0.8405,-0.0475,0.8165,-0.373,-0.444,-0.2115,0.137,-0.097,0.034,-0.047,-0.019,0.142,-0.157,-0.021
-0.79,-0.837,-0.047,0.813,-0.372,-0.442,-0.2085,0.1395,-0.0955,0.036,-0.044,-0.0165,0.144,-0.1585,-0.0215
-0.7925,-0.836,-0.0435,0.814,-0.375,-0.44,-0.2075,0.142,-0.0925,0.038,-0.041,-0.0155,0.144,-0.159,-0.023
-0.791,-0.829,-0.038,0.81,-0.3765,-0.4335,-0.2035,0.146,-0.0885,0.0415,-0.038,-0.0135,0.145,-0.1545,-0.0255
-0.789,-0.828,-0.039,0.808,-0.375,-0.4335,-0.2005,0.1475,-0.0885,0.043,-0.037,-0.0115,0.147,-0.156,-0.0255
-0.7735,-0.815,-0.0415,0.794,-0.366,-0.4285,-0.1955,0.1525,-0.0835,0.0505,-0.0305,-0.006,0.147,-0.152,-0.0265
-0.78,-0.823,-0.0425,0.801,-0.369,-0.433,-0.1965,0.152,-0.0825,0.0505,-0.0315,-0.007,0.151,-0.1455,-0.026
-0.7995,-0.8485,-0.049,0.8235,-0.3755,-0.449,-0.204,0.1455,-0.0935,0.0445,-0.0385,-0.0125,0.153,-0.148,-0.027
-0.7915,-0.843,-0.0515,0.817,-0.37,-0.4475,-0.2005,0.1475,-0.0895,0.0455,-0.0345,-0.0095,0.1535,-0.148,-0.03
-0.774,-0.8195,-0.0455,0.7965,-0.3645,-0.4325,-0.1935,0.156,-0.079,0.0525,-0.0295,-0.0035,0.154,-0.14,-0.0325
-0.7935,-0.83,-0.036,0.8115,-0.379,-0.433,-0.193,0.155,-0.082,0.0515,-0.031,-0.0055,0.1525,-0.1295,-0.0335
-0.836,-0.867,-0.031,0.851,-0.4025,-0.449,-0.2005,0.1485,-0.0895,0.043,-0.038,-0.0125,0.1565,-0.1275,-0.0345
-0.8185,-0.845,-0.026,0.8315,-0.3965,-0.4355,-0.1935,0.1545,-0.082,0.0495,-0.0335,-0.0065,0.1595,-0.1265,-0.0325
-0.783,-0.8055,-0.0225,0.794,-0.3805,-0.414,-0.1845,0.1635,-0.0715,0.0585,-0.0215,0.004,0.16,-0.1245,-0.031
-0.778,-0.8,-0.0215,0.789,-0.3785,-0.411,-0.185,0.163,-0.072,0.058,-0.02,0.004,0.1605,-0.1155,-0.036
-0.7775,-0.806,-0.0285,0.7915,-0.3745,-0.4175,-0.1835,0.165,-0.07,0.0585,-0.0175,0.005,0.162,-0.123,-0.0365
-0.76,-0.7915,-0.031,0.7755,-0.365,-0.411,-0.176,0.1735,-0.0625,0.0665,-0.009,0.0115,0.161,-0.1285,-0.0375
-0.768,-0.798,-0.03,0.783,-0.3695,-0.414,-0.1815,0.1695,-0.0635,0.063,-0.015,0.007,0.163,-0.1235,-0.0385
-0.7915,-0.822,-0.0305,0.8065,-0.381,-0.426,-0.1915,0.159,-0.0755,0.0555,-0.024,-0.0015,0.1655,-0.1235,-0.036
-0.7855,-0.811,-0.0255,0.798,-0.38,-0.4185,-0.174,0.1595,-0.0785,0.057,-0.0215,0.0,0.165,-0.1235,-0.0375
-0.787,-0.8165,-0.03,0.8015,-0.3785,-0.4235,-0.184,0.163,-0.072,0.058,-0.02,0.001,0.17,-0.1355,-0.0375
-0.7805,-0.8205,-0.04,0.8,-0.3705,-0.43,-0.1985,0.1645,-0.069,0.0595,-0.0205,0.003,0.1745,-0.1415,-0.0345
-0.7545,-0.7985,-0.044,0.776,-0.3555,-0.421,-0.1865,0.171,-0.064,0.065,-0.0155,0.0095,0.1755,-0.141,-0.0345
-0.744,-0.791,-0.047,0.7675,-0.349,-0.419,-0.181,0.178,-0.0555,0.0715,-0.011,0.014,0.178,-0.1425,-0.036
-0.7585,-0.81,-0.052,0.784,-0.3535,-0.431,-0.181,0.1705,-0.059,0.065,-0.0185,0.009,0.177,-0.1465,-0.0365
-0.7515,-0.8,-0.0485,0.7755,-0.352,-0.424,-0.187,0.1655,-0.063,0.062,-0.0215,0.0065,0.1765,-0.1415,-0.0375
-0.757,-0.795,-0.038,0.7755,-0.3595,-0.4165,-0.193,0.162,-0.0695,0.058,-0.027,0.0,0.1785,-0.1285,-0.037
-0.765,-0.797,-0.032,0.781,-0.367,-0.4145,-0.187,0.159,-0.0735,0.054,-0.03,-0.002,0.1745,-0.124,-0.0425
-0.738,-0.77,-0.032,0.754,-0.353,-0.401,-0.177,0.1705,-0.062,0.065,-0.017,0.011,0.173,-0.126,-0.044
-0.7575,-0.7905,-0.033,0.7735,-0.3625,-0.4115,-0.1805,0.169,-0.065,0.0645,-0.0185,0.0105,0.1745,-0.127,-0.0435
-0.758,-0.793,-0.035,0.7755,-0.362,-0.414,-0.18,0.168,-0.0645,0.0675,-0.017,0.0115,0.176,-0.1285,-0.0445
-0.742,-0.7725,-0.0305,0.757,-0.356,-0.4015,-0.177,0.1755,-0.057,0.0725,-0.0075,0.0175,0.1775,-0.1275,-0.043
-0.758,-0.7855,-0.0275,0.7715,-0.3655,-0.4065,-0.1825,0.169,-0.0625,0.0665,-0.014,0.0135,0.1805,-0.12,-0.0425
-0.76,-0.791,-0.031,0.7755,-0.365,-0.411,-0.1905,0.1635,-0.0675,0.063,-0.0175,0.009,0.1825,-0.116,-0.0405
-0.759,-0.7865,-0.0275,0.7725,-0.366,-0.407,-0.1925,0.166,-0.0675,0.064,-0.017,0.0095,0.183,-0.11,-0.045
-0.7515,-0.7895,-0.038,0.77,-0.357,-0.414,-0.1945,0.1715,-0.063,0.07,-0.014,0.014,0.187,-0.12,-0.046
-0.737,-0.7835,-0.0465,0.76,-0.3455,-0.415,-0.189,0.181,-0.0525,0.078,-0.004,0.0245,0.19,-0.129,-0.045
-0.7285,-0.7715,-0.043,0.75,-0.343,-0.407,-0.1845,0.187,-0.047,0.0825,0.0015,0.03,0.192,-0.1275,-0.04
-0.737,-0.78,-0.043,0.758,-0.347,-0.4115,-0.1885,0.1855,-0.051,0.08,-0.0005,0.0285,0.194,-0.1375,-0.036
-0.75,-0.7945,-0.0445,0.772,-0.353,-0.4195,-0.192,0.1815,-0.0545,0.0755,-0.0045,0.026,0.1945,-0.148,-0.0395
-0.751,-0.7985,-0.0475,0.7745,-0.3515,-0.423,-0.1995,0.1785,-0.059,0.073,-0.0065,0.023,0.1935,-0.152,-0.036
-0.7535,-0.8035,-0.05,0.778,-0.352,-0.4265,-0.205,0.1765,-0.064,0.07,-0.0075,0.023,0.193,-0.1495,-0.032
-0.758,-0.8105,-0.0525,0.7845,-0.353,-0.4315,-0.208,0.1765,-0.066,0.068,-0.0095,0.021,0.1935,-0.15,-0.0325
-0.7495,-0.805,-0.0555,0.777,-0.347,-0.43,-0.209,0.1785,-0.063,0.07,-0.009,0.0225,0.196,-0.1535,-0.0315
-0.7425,-0.801,-0.0585,0.7715,-0.3425,-0.43,-0.2115,0.1815,-0.0625,0.074,-0.005,0.025,0.1975,-0.152,-0.0275
-0.735,-0.796,-0.0605,0.7655,-0.3375,-0.4285,-0.217,0.1805,-0.0635,0.0735,-0.003,0.025,0.201,-0.1525,-0.0245
-0.7365,-0.8025,-0.066,0.769,-0.3355,-0.4345,-0.2235,0.176,-0.0675,0.0705,-0.005,0.0225,0.2055,-0.1595,-0.0225
-0.7375,-0.8065,-0.069,0.772,-0.3345,-0.438,-0.2285,0.174,-0.0685,0.068,-0.007,0.019,0.206,-0.1625,-0.0225
-0.7305,-0.804,-0.0735,0.767,-0.3285,-0.4385,-0.2325,0.173,-0.068,0.067,-0.0055,0.021,0.208,-0.164,-0.02
-0.728,-0.81,-0.0825,0.7685,-0.323,-0.4465,-0.238,0.172,-0.0715,0.064,-0.0075,0.021,0.2095,-0.1665,-0.0155
-0.726,-0.812,-0.086,0.7685,-0.32,-0.449,-0.241,0.17,-0.073,0.0615,-0.011,0.0185,0.211,-0.1625,-0.012
-0.726,-0.8125,-0.0865,0.769,-0.32,-0.4495,-0.243,0.1685,-0.075,0.063,-0.012,0.02,0.2125,-0.157,-0.009
-0.723,-0.809,-0.086,0.766,-0.3185,-0.448,-0.2555,0.1685,-0.0745,0.0635,-0.0115,0.0205,0.215,-0.155,-0.004
-0.728,-0.8125,-0.0845,0.77,-0.322,-0.4485,-0.26,0.165,-0.077,0.063,-0.012,0.0185,0.2175,-0.154,-0.0025
-0.7505,-0.8245,-0.0745,0.787,-0.338,-0.4495,-0.2545,0.157,-0.0855,0.056,-0.021,0.011,0.2155,-0.146,-0.006
-0.741,-0.8175,-0.077,0.779,-0.332,-0.447,-0.258,0.158,-0.083,0.054,-0.0225,0.0085,0.2175,-0.1445,-0.01
-0.7125,-0.8165,-0.104,0.7645,-0.3045,-0.46,-0.254,0.161,-0.082,0.0585,-0.019,0.012,0.2145,-0.149,-0.009
-0.719,-0.825,-0.1055,0.7715,-0.307,-0.465,-0.251,0.162,-0.0815,0.0625,-0.0155,0.0175,0.21,-0.1545,-0.0045
-0.7175,-0.8035,-0.0855,0.7605,-0.3165,-0.4445,-0.244,0.168,-0.0725,0.0705,-0.0065,0.0265,0.211,-0.155,-0.003
-0.731,-0.812,-0.081,0.771,-0.3255,-0.4465,-0.2485,0.1595,-0.0845,0.064,-0.013,0.0225,0.21,-0.152,0.001
-0.7365,-0.8175,-0.081,0.7765,-0.328,-0.449,-0.261,0.151,-0.0945,0.0565,-0.0195,0.015,0.2095,-0.151,0.003
-0.702,-0.807,-0.105,0.7545,-0.2985,-0.456,-0.26,0.1475,-0.1005,0.054,-0.0215,0.0125,0.206,-0.1545,0.005
-0.7015,-0.8165,-0.115,0.7585,-0.2935,-0.466,-0.2655,0.1375,-0.113,0.046,-0.026,0.0095,0.2005,-0.1615,0.0105
-0.7345,-0.82,-0.0855,0.777,-0.3245,-0.453,-0.2375,0.136,-0.1195,0.0445,-0.0245,0.012,0.1925,-0.1565,0.0055
-0.748,-0.828,-0.08,0.7875,-0.334,-0.454,-0.2385,0.139,-0.117,0.046,-0.024,0.0135,0.1905,-0.1525,0.006
-0.724,-0.8185,-0.0945,0.7715,-0.315,-0.4565,-0.275,0.1385,-0.109,0.0455,-0.024,0.0135,0.198,-0.1515,0.013
-0.7165,-0.8105,-0.094,0.7635,-0.3115,-0.4525,-0.269,0.139,-0.108,0.048,-0.022,0.0155,0.2045,-0.1485,0.012
-0.7305,-0.813,-0.083,0.7715,-0.324,-0.448,-0.265,0.1405,-0.106,0.0515,-0.0215,0.017,0.208,-0.148,0.0085
-0.734,-0.8125,-0.0785,0.773,-0.328,-0.446,-0.2605,0.1445,-0.103,0.0555,-0.018,0.0205,0.2065,-0.155,0.007
-0.716,-0.8035,-0.087,0.7595,-0.315,-0.4455,-0.254,0.15,-0.1,0.0605,-0.013,0.026,0.2085,-0.162,0.009
-0.7,-0.806,-0.106,0.753,-0.2975,-0.456,-0.2635,0.142,-0.1085,0.051,-0.0185,0.0185,0.2085,-0.159,0.0095
-0.721,-0.826,-0.1045,0.773,-0.3085,-0.465,-0.267,0.136,-0.1165,0.0455,-0.0235,0.012,0.209,-0.155,0.0095
-0.7395,-0.828,-0.088,0.7835,-0.326,-0.458,-0.2625,0.1435,-0.1095,0.0535,-0.017,0.02,0.213,-0.1525,0.0095
-0.7215,-0.8115,-0.09,0.766,-0.316,-0.451,-0.26,0.147,-0.107,0.0545,-0.0115,0.023,0.2125,-0.152,0.005
-0.6945,-0.784,-0.0895,0.739,-0.303,-0.437,-0.2535,0.149,-0.1045,0.057,-0.008,0.027,0.211,-0.1515,0.0045
-0.685,-0.776,-0.091,0.73,-0.297,-0.4335,-0.2535,0.1455,-0.1085,0.0535,-0.0115,0.023,0.206,-0.1515,0.0055
-0.701,-0.8105,-0.1095,0.7555,-0.296,-0.46,-0.271,0.131,-0.1245,0.038,-0.0275,0.0065,0.2035,-0.1595,0.0075
-0.7135,-0.858,-0.1445,0.7855,-0.285,-0.501,-0.2855,0.1105,-0.1435,0.0185,-0.0465,-0.011,0.204,-0.172,0.011
-0.6975,-0.858,-0.16,0.7775,-0.269,-0.509,-0.2805,0.1095,-0.1415,0.017,-0.0465,-0.012,0.203,-0.1785,0.01
-0.7,-0.84,-0.14,0.77,-0.28,-0.49,-0.271,0.1235,-0.1275,0.0305,-0.0365,0.0015,0.201,-0.1855,0.013
-0.7135,-0.8355,-0.122,0.774,-0.2955,-0.479,-0.257,0.13,-0.1195,0.037,-0.029,0.0075,0.197,-0.1865,0.011
-0.7145,-0.8305,-0.116,0.7725,-0.2995,-0.4735,-0.2565,0.133,-0.1145,0.0375,-0.027,0.0085,0.196,-0.1865,0.0095
-0.7085,-0.827,-0.118,0.7675,-0.2955,-0.4725,-0.264,0.1285,-0.118,0.0315,-0.0315,0.005,0.1945,-0.189,0.0095
-0.7165,-0.8315,-0.1155,0.7735,-0.3005,-0.4735,-0.258,0.1275,-0.12,0.0285,-0.032,0.004,0.1915,-0.1885,0.006
-0.725,-0.841,-0.116,0.7825,-0.3045,-0.4785,-0.26,0.126,-0.1215,0.028,-0.0345,0.0025,0.1895,-0.1855,0.006
-0.705,-0.8255,-0.1205,0.765,-0.2925,-0.4725,-0.2575,0.126,-0.1195,0.0295,-0.0305,0.0055,0.1865,-0.177,0.0105
-0.725,-0.847,-0.1215,0.786,-0.302,-0.4845,-0.2615,0.124,-0.1245,0.0275,-0.032,0.0055,0.189,-0.1845,0.0135
-0.7465,-0.864,-0.1175,0.805,-0.3145,-0.491,-0.266,0.1175,-0.1315,0.0215,-0.0375,-0.0005,0.189,-0.187,0.011
-0.7255,-0.836,-0.1105,0.7805,-0.308,-0.473,-0.2555,0.125,-0.1225,0.029,-0.028,0.0055,0.187,-0.182,0.009
-0.714,-0.8275,-0.1135,0.7705,-0.3005,-0.4705,-0.248,0.128,-0.1185,0.034,-0.024,0.01,0.1845,-0.1865,0.0075
-0.711,-0.821,-0.11,0.7655,-0.3005,-0.4655,-0.247,0.1265,-0.1205,0.0345,-0.026,0.009,0.1825,-0.184,0.0065
-0.7165,-0.833,-0.116,0.7745,-0.3005,-0.4745,-0.25,0.125,-0.125,0.031,-0.0295,0.007,0.184,-0.1895,0.006
-0.7285,-0.8545,-0.1255,0.791,-0.3015,-0.49,-0.2585,0.1145,-0.1395,0.022,-0.037,-0.001,0.184,-0.198,0.0095
-0.7295,-0.856,-0.1265,0.7925,-0.3015,-0.4915,-0.261,0.1145,-0.137,0.0205,-0.04,-0.0035,0.183,-0.195,0.01
-0.7345,-0.86,-0.1255,0.797,-0.3045,-0.493,-0.2635,0.1125,-0.1345,0.0165,-0.0445,-0.0065,0.1825,-0.1925,0.0075
-0.744,-0.8565,-0.1125,0.8,-0.316,-0.4845,-0.263,0.1085,-0.141,0.0135,-0.048,-0.0085,0.1775,-0.1845,0.0075
-0.736,-0.837,-0.101,0.786,-0.3175,-0.469,-0.249,0.1185,-0.132,0.022,-0.0415,-0.0005,0.1715,-0.1755,0.0065
-0.752,-0.846,-0.0935,0.7985,-0.3295,-0.47,-0.2525,0.115,-0.135,0.02,-0.0445,-0.0035,0.1695,-0.17,0.007
-0.753,-0.848,-0.0955,0.8,-0.329,-0.472,-0.256,0.112,-0.139,0.0175,-0.047,-0.006,0.1675,-0.1695,0.0085
-0.7245,-0.822,-0.0975,0.773,-0.3135,-0.46,-0.247,0.118,-0.1335,0.0225,-0.0405,0.0,0.1645,-0.172,0.009
-0.753,-0.8395,-0.0865,0.796,-0.3335,-0.463,-0.253,0.108,-0.1445,0.0115,-0.051,-0.011,0.1595,-0.1695,0.009
-0.791,-0.8725,-0.0815,0.8315,-0.355,-0.477,-0.257,0.099,-0.1535,0.0015,-0.0615,-0.022,0.1565,-0.173,0.007
-0.788,-0.8665,-0.0785,0.827,-0.355,-0.4725,-0.2505,0.102,-0.1485,0.0065,-0.0595,-0.0185,0.1555,-0.169,0.004
-0.7735,-0.8475,-0.074,0.8105,-0.35,-0.4605,-0.237,0.11,-0.139,0.0155,-0.052,-0.011,0.1515,-0.1675,0.0005
-0.7755,-0.8525,-0.077,0.8135,-0.3495,-0.4645,-0.232,0.11,-0.138,0.015,-0.0515,-0.0125,0.1475,-0.171,-0.0015
-0.779,-0.8635,-0.0845,0.821,-0.3475,-0.474,-0.2415,0.103,-0.1425,0.009,-0.058,-0.019,0.15,-0.17,-0.002
-0.771,-0.8615,-0.09,0.816,-0.341,-0.4755,-0.2315,0.106,-0.138,0.0115,-0.0535,-0.014,0.147,-0.1745,-0.003
-0.7825,-0.867,-0.0845,0.8245,-0.349,-0.4755,-0.221,0.107,-0.1355,0.013,-0.0535,-0.014,0.1425,-0.1775,-0.0075
-0.7895,-0.872,-0.082,0.8305,-0.354,-0.477,-0.2305,0.103,-0.137,0.011,-0.057,-0.0165,0.1435,-0.178,-0.007
-0.7875,-0.872,-0.085,0.8295,-0.3515,-0.4785,-0.242,0.1005,-0.1375,0.008,-0.058,-0.015,0.147,-0.1685,-0.0025
-0.7965,-0.8755,-0.0795,0.836,-0.3585,-0.4775,-0.239,0.101,-0.1385,0.0075,-0.058,-0.015,0.148,-0.16,-0.003
-0.802,-0.8705,-0.0685,0.836,-0.367,-0.4695,-0.232,0.1015,-0.1355,0.009,-0.056,-0.0135,0.1445,-0.1615,-0.0045
-0.8055,-0.8755,-0.0695,0.8405,-0.368,-0.4725,-0.2375,0.0985,-0.137,0.0055,-0.058,-0.017,0.141,-0.167,-0.0025
-0.8165,-0.8875,-0.0715,0.8515,-0.373,-0.4795,-0.2415,0.092,-0.1475,0.0,-0.064,-0.0245,0.14,-0.1715,-0.0025
-0.827,-0.8905,-0.063,0.8585,-0.3825,-0.4765,-0.2435,0.087,-0.153,-0.007,-0.072,-0.0305,0.141,-0.17,-0.0025
-0.8245,-0.89,-0.066,0.857,-0.3795,-0.478,-0.241,0.09,-0.152,-0.006,-0.0705,-0.0295,0.138,-0.174,-0.0025
-0.809,-0.8795,-0.0705,0.844,-0.3695,-0.475,-0.2355,0.096,-0.144,-0.0005,-0.064,-0.024,0.1335,-0.1735,-0.0045
-0.7985,-0.8725,-0.074,0.8355,-0.3625,-0.4735,-0.2325,0.097,-0.1415,0.0015,-0.063,-0.022,0.1335,-0.177,-0.0015
-0.8015,-0.875,-0.0735,0.838,-0.364,-0.4745,-0.2355,0.0935,-0.1495,-0.0005,-0.066,-0.0235,0.134,-0.1825,0.0035
-0.8095,-0.8835,-0.074,0.846,-0.368,-0.479,-0.2415,0.092,-0.1505,-0.0035,-0.0695,-0.0265,0.1325,-0.1825,0.0035
-0.8115,-0.8855,-0.074,0.8485,-0.369,-0.48,-0.2335,0.0935,-0.1465,-0.002,-0.067,-0.025,0.131,-0.1785,0.0
-0.805,-0.877,-0.072,0.841,-0.367,-0.4745,-0.2235,0.0965,-0.1445,0.0005,-0.062,-0.0235,0.13,-0.1765,-0.0025
-0.8055,-0.874,-0.0685,0.8395,-0.369,-0.471,-0.228,0.094,-0.1455,0.001,-0.0635,-0.024,0.1305,-0.177,-0.001
-0.8135,-0.882,-0.0685,0.8475,-0.3725,-0.4755,-0.2315,0.092,-0.148,-0.001,-0.067,-0.027,0.1335,-0.178,-0.001
-0.815,-0.886,-0.0715,0.85,-0.372,-0.479,-0.236,0.091,-0.15,-0.0035,-0.0685,-0.0285,0.134,-0.18,0.0005
-0.8095,-0.8775,-0.0675,0.8435,-0.371,-0.4725,-0.2455,0.091,-0.148,-0.002,-0.0675,-0.0265,0.1375,-0.177,0.005
-0.812,-0.8785,-0.0665,0.845,-0.373,-0.4725,-0.234,0.0925,-0.1485,0.0,-0.064,-0.025,0.137,-0.179,0.0025
-0.812,-0.879,-0.0675,0.8455,-0.3725,-0.4735,-0.2265,0.093,-0.1515,-0.0015,-0.0645,-0.0255,0.132,-0.1755,-0.002
-0.812,-0.8775,-0.0655,0.8445,-0.373,-0.472,-0.225,0.095,-0.149,-0.0015,-0.063,-0.0245,0.1315,-0.1715,-0.0025
-0.8115,-0.881,-0.0695,0.846,-0.3715,-0.475,-0.2265,0.0955,-0.1435,0.001,-0.0615,-0.023,0.1355,-0.1775,-0.0015
-0.8105,-0.89,-0.08,0.85,-0.3655,-0.485,-0.2375,0.0905,-0.148,0.0,-0.065,-0.0265,0.1385,-0.183,0.0005
-0.815,-0.892,-0.077,0.853,-0.369,-0.4845,-0.237,0.0875,-0.1525,-0.0045,-0.0665,-0.0285,0.136,-0.1755,-0.0005
-0.8135,-0.879,-0.0655,0.846,-0.3745,-0.472,-0.238,0.0865,-0.153,-0.006,-0.066,-0.0295,0.136,-0.1675,0.0
-0.8135,-0.873,-0.06,0.843,-0.377,-0.4665,-0.236,0.0875,-0.1545,-0.0045,-0.064,-0.0285,0.135,-0.165,-0.001
-0.8045,-0.869,-0.0645,0.8365,-0.3705,-0.4665,-0.2295,0.095,-0.145,0.0015,-0.058,-0.0235,0.134,-0.1675,-0.003
-0.811,-0.875,-0.064,0.843,-0.3735,-0.4695,-0.2335,0.0905,-0.15,-0.0025,-0.065,-0.0295,0.1345,-0.168,-0.0035
-0.8065,-0.869,-0.0625,0.8375,-0.372,-0.466,-0.2375,0.0875,-0.155,-0.004,-0.067,-0.0305,0.1345,-0.168,-0.0055
-0.797,-0.867,-0.07,0.8315,-0.3635,-0.4685,-0.2355,0.0915,-0.15,0.001,-0.064,-0.0245,0.1335,-0.1775,-0.003
-0.811,-0.8755,-0.065,0.843,-0.373,-0.4705,-0.237,0.09,-0.1525,-0.0015,-0.0675,-0.027,0.133,-0.18,-0.0025
-0.795,-0.858,-0.063,0.8265,-0.366,-0.4605,-0.2315,0.088,-0.1445,-0.0005,-0.063,-0.0245,0.1295,-0.1815,-0.0035
-0.794,-0.863,-0.0685,0.828,-0.363,-0.4655,-0.232,0.0905,-0.144,-0.0005,-0.063,-0.0235,0.1335,-0.188,-0.001
-0.8065,-0.879,-0.072,0.8425,-0.3675,-0.4755,-0.236,0.093,-0.151,0.0,-0.065,-0.0245,0.137,-0.1895,0.0015
-0.8,-0.87,-0.07,0.8345,-0.365,-0.47,-0.231,0.091,-0.1475,0.002,-0.0645,-0.0225,0.133,-0.1805,-0.001
-0.7965,-0.8645,-0.068,0.8305,-0.3645,-0.4665,-0.2315,0.093,-0.144,0.0035,-0.064,-0.02,0.1345,-0.1785,-0.0005
-0.7995,-0.868,-0.0685,0.8335,-0.366,-0.4685,-0.231,0.0915,-0.1475,0.005,-0.0655,-0.022,0.1345,-0.18,-0.002
-0.806,-0.8755,-0.069,0.841,-0.3685,-0.4725,-0.232,0.089,-0.1475,0.0035,-0.0675,-0.0255,0.1355,-0.176,0.0
-0.809,-0.8745,-0.066,0.842,-0.372,-0.47,-0.23,0.091,-0.1455,0.0045,-0.066,-0.0235,0.1355,-0.1755,0.003
-0.8095,-0.8635,-0.054,0.836,-0.378,-0.4585,-0.2205,0.091,-0.146,0.005,-0.064,-0.0235,0.1335,-0.1675,-0.002
-0.8085,-0.8685,-0.0605,0.838,-0.3745,-0.4645,-0.225,0.0895,-0.148,0.0025,-0.0655,-0.023,0.137,-0.1645,0.002
-0.8115,-0.8755,-0.064,0.8435,-0.374,-0.47,-0.237,0.0875,-0.1515,0.0,-0.0695,-0.027,0.139,-0.1665,0.0045
-0.811,-0.8735,-0.0625,0.842,-0.3745,-0.468,-0.2395,0.0875,-0.1545,-0.0015,-0.07,-0.028,0.1405,-0.1675,0.0005
-0.8195,-0.8825,-0.0635,0.851,-0.3785,-0.473,-0.2415,0.0835,-0.159,-0.0055,-0.0735,-0.031,0.1365,-0.1665,-0.0005
-0.818,-0.8805,-0.0625,0.849,-0.378,-0.4715,-0.238,0.085,-0.157,-0.004,-0.0715,-0.029,0.135,-0.165,0.001
-0.794,-0.856,-0.0615,0.8245,-0.3665,-0.459,-0.23,0.092,-0.1495,0.0045,-0.065,-0.021,0.1355,-0.1655,0.0015
-0.788,-0.8455,-0.0575,0.8165,-0.3655,-0.4515,-0.2235,0.0955,-0.1465,0.009,-0.0625,-0.0185,0.133,-0.1655,-0.001
-0.7895,-0.8455,-0.0565,0.8175,-0.367,-0.451,-0.222,0.096,-0.146,0.008,-0.063,-0.0175,0.132,-0.168,-0.001
-0.791,-0.8415,-0.051,0.816,-0.3705,-0.446,-0.23,0.093,-0.149,0.0045,-0.067,-0.0215,0.1335,-0.167,0.0
-0.8135,-0.866,-0.0525,0.8395,-0.381,-0.459,-0.2345,0.086,-0.1545,-0.0015,-0.072,-0.0265,0.1345,-0.1715,0.001
-0.8325,-0.8885,-0.056,0.86,-0.3885,-0.472,-0.238,0.082,-0.1585,-0.007,-0.0775,-0.0305,0.1335,-0.1745,0.0025
-0.815,-0.869,-0.054,0.842,-0.381,-0.4615,-0.2315,0.0895,-0.151,0.001,-0.072,-0.0255,0.1335,-0.1755,0.001
-0.8085,-0.8655,-0.057,0.837,-0.376,-0.4615,-0.2285,0.092,-0.149,0.0045,-0.0695,-0.0235,0.133,-0.1805,0.0005
-0.8235,-0.8935,-0.0695,0.8585,-0.3775,-0.4815,-0.238,0.0855,-0.158,-0.0025,-0.077,-0.0305,0.1325,-0.189,0.0025
-0.821,-0.9055,-0.085,0.863,-0.368,-0.4955,-0.243,0.081,-0.163,-0.0075,-0.082,-0.0365,0.131,-0.1895,0.001
-0.8235,-0.901,-0.078,0.862,-0.373,-0.4895,-0.2415,0.083,-0.16,-0.005,-0.0805,-0.034,0.134,-0.186,0.0035
-0.82,-0.888,-0.068,0.854,-0.376,-0.478,-0.2335,0.088,-0.153,0.0015,-0.074,-0.029,0.1355,-0.1785,0.004
-0.795,-0.879,-0.084,0.8365,-0.3555,-0.4815,-0.243,0.0855,-0.1545,-0.0025,-0.0775,-0.0315,0.136,-0.172,0.0035
-0.789,-0.8765,-0.0875,0.8325,-0.351,-0.482,-0.2415,0.0865,-0.155,-0.003,-0.075,-0.0285,0.1345,-0.1795,0.0045
-0.8085,-0.8725,-0.064,0.8405,-0.3725,-0.4685,-0.235,0.0945,-0.147,0.006,-0.066,-0.022,0.132,-0.1815,0.005
-0.807,-0.8705,-0.063,0.8385,-0.372,-0.4665,-0.2255,0.097,-0.144,0.01,-0.0625,-0.019,0.132,-0.183,0.006
-0.8065,-0.882,-0.0755,0.844,-0.3655,-0.479,-0.2165,0.089,-0.153,0.0015,-0.0715,-0.0285,0.1325,-0.178,0.001
-0.8075,-0.8915,-0.084,0.849,-0.362,-0.4875,-0.2405,0.0875,-0.153,-0.0015,-0.0765,-0.0315,0.1375,-0.1775,-0.0015
-0.785,-0.8795,-0.0945,0.832,-0.3455,-0.487,-0.243,0.089,-0.1515,0.0,-0.076,-0.0295,0.139,-0.176,-0.001
-0.7755,-0.8695,-0.094,0.8225,-0.3415,-0.4815,-0.2375,0.088,-0.1565,0.001,-0.076,-0.0295,0.136,-0.177,0.003
-0.788,-0.8635,-0.075,0.8255,-0.3565,-0.469,-0.2355,0.0955,-0.148,0.008,-0.0695,-0.0235,0.135,-0.1725,0.003
-0.814,-0.869,-0.055,0.841,-0.38,-0.4615,-0.231,0.099,-0.142,0.0085,-0.07,-0.023,0.134,-0.1605,0.0015
-0.7955,-0.86,-0.0645,0.8275,-0.366,-0.4625,-0.2225,0.104,-0.138,0.015,-0.0655,-0.017,0.1335,-0.173,0.0
-0.794,-0.8615,-0.0675,0.8275,-0.3635,-0.4645,-0.2195,0.1045,-0.138,0.017,-0.063,-0.014,0.1335,-0.175,-0.003
-0.8115,-0.8695,-0.0585,0.84,-0.3765,-0.464,-0.222,0.1065,-0.136,0.016,-0.063,-0.012,0.1345,-0.1735,-0.0005
-0.813,-0.8665,-0.0535,0.8395,-0.38,-0.46,-0.2175,0.1075,-0.135,0.019,-0.0605,-0.0115,0.134,-0.178,-0.0005
-0.8165,-0.87,-0.0535,0.843,-0.382,-0.4615,-0.2205,0.1045,-0.1375,0.018,-0.0615,-0.0145,0.1335,-0.1775,0.0
-0.817,-0.8725,-0.056,0.8445,-0.381,-0.464,-0.2235,0.1035,-0.137,0.018,-0.0615,-0.014,0.136,-0.1775,-0.0005
-0.8265,-0.879,-0.0525,0.8525,-0.3875,-0.4655,-0.2245,0.1025,-0.1395,0.018,-0.063,-0.0155,0.137,-0.1815,-0.002
-0.811,-0.8715,-0.0605,0.841,-0.3755,-0.466,-0.2225,0.1045,-0.14,0.0185,-0.063,-0.014,0.138,-0.185,-0.0015
-0.8105,-0.877,-0.0665,0.8435,-0.372,-0.4715,-0.227,0.0985,-0.1475,0.0125,-0.0675,-0.02,0.1375,-0.1845,-0.0005
-0.792,-0.8625,-0.0705,0.827,-0.361,-0.4665,-0.2225,0.1055,-0.1425,0.0175,-0.0625,-0.016,0.1375,-0.185,0.0015
-0.7735,-0.849,-0.0755,0.811,-0.3495,-0.462,-0.2225,0.1065,-0.1415,0.017,-0.0615,-0.013,0.14,-0.182,0.001
-0.7795,-0.856,-0.0765,0.8175,-0.352,-0.466,-0.2265,0.102,-0.1465,0.0115,-0.065,-0.017,0.139,-0.179,0.0
-0.7855,-0.858,-0.0725,0.8215,-0.357,-0.4655,-0.225,0.1025,-0.147,0.0125,-0.0635,-0.0155,0.136,-0.1735,-0.0035
-0.8,-0.8785,-0.0785,0.839,-0.361,-0.4785,-0.232,0.095,-0.1545,0.0065,-0.0685,-0.021,0.138,-0.1745,-0.0045
-0.7845,-0.869,-0.084,0.8265,-0.3505,-0.4765,-0.231,0.1005,-0.1485,0.0095,-0.0645,-0.0175,0.143,-0.1745,-0.003
-0.7735,-0.85,-0.0765,0.8115,-0.3485,-0.463,-0.225,0.108,-0.14,0.0165,-0.058,-0.01,0.1445,-0.1705,-0.0025
-0.7745,-0.843,-0.0685,0.8085,-0.3535,-0.456,-0.221,0.1105,-0.1385,0.019,-0.0555,-0.007,0.144,-0.1685,-0.0025
-0.79,-0.8465,-0.0565,0.818,-0.367,-0.4515,-0.2175,0.113,-0.136,0.021,-0.054,-0.005,0.143,-0.169,-0.004
-0.8125,-0.869,-0.0565,0.84,-0.3785,-0.4625,-0.227,0.1055,-0.1425,0.0135,-0.0635,-0.0135,0.142,-0.1695,-0.0045
-0.822,-0.8865,-0.0645,0.854,-0.379,-0.4755,-0.236,0.096,-0.151,0.0055,-0.0735,-0.024,0.141,-0.1725,-0.0035
-0.813,-0.8775,-0.0645,0.845,-0.3745,-0.471,-0.225,0.104,-0.142,0.01,-0.0665,-0.0185,0.14,-0.178,-0.0055
-0.7995,-0.858,-0.058,0.8285,-0.371,-0.458,-0.22,0.11,-0.134,0.015,-0.06,-0.012,0.14,-0.1715,-0.0065
-0.8075,-0.862,-0.055,0.8345,-0.3765,-0.4585,-0.224,0.107,-0.1365,0.0145,-0.062,-0.014,0.1415,-0.171,-0.0065
-0.8105,-0.8655,-0.055,0.8375,-0.378,-0.46,-0.2265,0.106,-0.138,0.0125,-0.0655,-0.0175,0.14,-0.1775,-0.0095
-0.8005,-0.854,-0.054,0.827,-0.3735,-0.454,-0.217,0.1095,-0.1325,0.0155,-0.0635,-0.0145,0.137,-0.1795,-0.0125
-0.7945,-0.847,-0.053,0.8205,-0.371,-0.45,-0.2055,0.1155,-0.124,0.018,-0.0595,-0.011,0.137,-0.182,-0.013
-0.8015,-0.855,-0.0535,0.828,-0.3745,-0.454,-0.1975,0.119,-0.118,0.019,-0.057,-0.011,0.1325,-0.187,-0.015
-0.8005,-0.8565,-0.0555,0.828,-0.373,-0.456,-0.19,0.12,-0.111,0.02,-0.055,-0.01,0.128,-0.186,-0.0205
-0.797,-0.8535,-0.0565,0.825,-0.3705,-0.455,-0.188,0.119,-0.107,0.0155,-0.061,-0.0145,0.1235,-0.181,-0.0225
-0.8005,-0.858,-0.058,0.829,-0.3715,-0.458,-0.1795,0.1165,-0.1055,0.013,-0.0665,-0.02,0.118,-0.182,-0.0265
-0.8155,-0.874,-0.059,0.8445,-0.3785,-0.4665,-0.191,0.111,-0.1055,0.0065,-0.0745,-0.029,0.117,-0.1905,-0.027
-0.829,-0.8875,-0.0585,0.858,-0.3855,-0.473,-0.1805,0.1095,-0.1,-0.002,-0.0825,-0.0395,0.1105,-0.2005,-0.03
-0.8325,-0.8875,-0.055,0.8595,-0.389,-0.4715,-0.1625,0.102,-0.106,-0.012,-0.0895,-0.048,0.0975,-0.2025,-0.036
-0.852,-0.9125,-0.0605,0.882,-0.396,-0.4865,-0.1645,0.0845,-0.1255,-0.026,-0.1025,-0.061,0.0855,-0.2125,-0.035
-0.87,-0.93,-0.06,0.8995,-0.405,-0.495,-0.153,0.074,-0.135,-0.0365,-0.111,-0.0705,0.0745,-0.2185,-0.036
-0.882,-0.933,-0.051,0.907,-0.416,-0.492,-0.152,0.0615,-0.149,-0.0475,-0.1205,-0.079,0.061,-0.22,-0.0385
-0.8945,-0.9395,-0.045,0.9165,-0.425,-0.4925,-0.1505,0.052,-0.162,-0.0545,-0.1275,-0.0835,0.0535,-0.22,-0.038
-0.9025,-0.9485,-0.0465,0.9255,-0.428,-0.4975,-0.149,0.0385,-0.1795,-0.066,-0.1375,-0.093,0.047,-0.2235,-0.0365
-0.8975,-0.956,-0.0585,0.9265,-0.4195,-0.5075,-0.148,0.02,-0.197,-0.083,-0.153,-0.108,0.034,-0.233,-0.04
-0.914,-0.956,-0.042,0.935,-0.4365,-0.499,-0.1335,0.0225,-0.195,-0.0815,-0.1525,-0.109,0.0285,-0.2295,-0.048
-0.9345,-0.951,-0.0165,0.9425,-0.4595,-0.484,-0.118,0.0365,-0.187,-0.0675,-0.1425,-0.1,0.0275,-0.2265,-0.0555
-0.938,-0.937,0.001,0.937,-0.4695,-0.468,-0.11,0.045,-0.1855,-0.059,-0.135,-0.0925,0.028,-0.217,-0.0575
-0.961,-0.939,0.022,0.9495,-0.492,-0.4585,-0.1095,0.036,-0.2015,-0.0625,-0.136,-0.0925,0.0265,-0.208,-0.0595
-0.9585,-0.9295,0.029,0.944,-0.494,-0.4505,-0.113,0.032,-0.217,-0.0555,-0.1265,-0.084,0.031,-0.207,-0.057
-0.949,-0.914,0.035,0.9315,-0.4925,-0.4395,-0.1155,0.028,-0.2365,-0.0485,-0.1185,-0.0745,0.0345,-0.2035,-0.0515
-0.955,-0.921,0.0335,0.938,-0.4945,-0.444,-0.122,0.017,-0.2565,-0.048,-0.1165,-0.072,0.0365,-0.2075,-0.0475
-0.949,-0.9175,0.0315,0.933,-0.4905,-0.4435,-0.1265,0.027,-0.2575,-0.028,-0.096,-0.0565,0.051,-0.2095,-0.047
-0.944,-0.896,0.048,0.92,-0.4965,-0.424,-0.1385,0.04,-0.2575,-0.009,-0.081,-0.046,0.0685,-0.1895,-0.054
-0.941,-0.8835,0.057,0.9115,-0.499,-0.413,-0.1575,0.0595,-0.252,0.013,-0.065,-0.036,0.087,-0.1735,-0.0595
-0.938,-0.8845,0.054,0.911,-0.496,-0.4155,-0.15,0.088,-0.2325,0.0435,-0.042,-0.02,0.106,-0.1695,-0.0695
-0.9175,-0.8655,0.052,0.8915,-0.485,-0.407,-0.134,0.1305,-0.197,0.0835,-0.013,0.0025,0.1265,-0.1595,-0.088
-0.888,-0.842,0.046,0.865,-0.4675,-0.398,-0.136,0.1775,-0.158,0.129,0.021,0.0275,0.1505,-0.1525,-0.102
-0.8845,-0.838,0.0465,0.861,-0.466,-0.396,-0.139,0.228,-0.119,0.178,0.0595,0.0535,0.18,-0.135,-0.121
-0.8725,-0.8185,0.054,0.8455,-0.464,-0.382,-0.1325,0.281,-0.0825,0.2315,0.1015,0.0835,0.207,-0.115,-0.1395
-0.8405,-0.7795,0.0605,0.8095,-0.451,-0.359,-0.1355,0.3165,-0.06,0.2695,0.133,0.107,0.2325,-0.103,-0.1495
-0.8055,-0.7465,0.059,0.7755,-0.433,-0.3435,-0.1435,0.3665,-0.0265,0.3175,0.1735,0.136,0.267,-0.0905,-0.162
-0.7765,-0.724,0.053,0.75,-0.415,-0.3355,-0.145,0.4215,0.015,0.37,0.215,0.167,0.298,-0.081,-0.1765
-0.76,-0.702,0.0575,0.731,-0.409,-0.322,-0.1545,0.4665,0.045,0.418,0.2515,0.195,0.3325,-0.063,-0.188
-0.7445,-0.6815,0.0625,0.713,-0.4045,-0.309,-0.169,0.5005,0.0615,0.465,0.2915,0.2255,0.368,-0.0445,-0.1965
-0.7245,-0.655,0.069,0.6895,-0.397,-0.293,-0.173,0.535,0.082,0.5095,0.33,0.2535,0.395,-0.0285,-0.2065
-0.6995,-0.63,0.069,0.6645,-0.385,-0.2805,-0.1765,0.571,0.1015,0.5525,0.3635,0.2765,0.423,-0.0145,-0.2155
-0.696,-0.633,0.0625,0.664,-0.3795,-0.285,-0.1885,0.5985,0.116,0.5925,0.3955,0.2975,0.4545,-0.004,-0.226
-0.6845,-0.631,0.0535,0.6575,-0.369,-0.289,-0.2005,0.638,0.145,0.639,0.431,0.32,0.49,0.001,-0.2375
-0.6405,-0.6155,0.0245,0.628,-0.333,-0.2955,-0.215,0.69,0.1775,0.695,0.4725,0.349,0.526,-0.009,-0.242
-0.601,-0.5925,0.0085,0.5965,-0.305,-0.292,-0.224,0.751,0.2145,0.756,0.5195,0.3805,0.561,-0.005,-0.2515
-0.5665,-0.566,0.0,0.566,-0.2835,-0.283,-0.2255,0.8005,0.2495,0.8065,0.559,0.4055,0.5895,0.0025,-0.2595
-0.5405,-0.5565,-0.016,0.548,-0.2625,-0.2865,-0.2265,0.842,0.278,0.852,0.595,0.426,0.6115,0.0045,-0.266
-0.528,-0.567,-0.039,0.5475,-0.245,-0.303,-0.2415,0.866,0.2915,0.881,0.6135,0.434,0.6325,0.0025,-0.2685
-0.516,-0.5855,-0.0695,0.5505,-0.2235,-0.3275,-0.2535,0.8925,0.311,0.906,0.6265,0.4385,0.6515,-0.0115,-0.2725
-0.4885,-0.5825,-0.094,0.5355,-0.1975,-0.3385,-0.2435,0.9365,0.3595,0.935,0.6425,0.4445,0.6635,-0.017,-0.287
-0.463,-0.5745,-0.112,0.5185,-0.1755,-0.3435,-0.237,0.9685,0.3885,0.952,0.6495,0.447,0.671,-0.0195,-0.295
-0.47,-0.5775,-0.1075,0.5235,-0.1815,-0.3425,-0.216,0.9995,0.422,0.9655,0.6555,0.4495,0.6625,-0.026,-0.3065
-0.497,-0.593,-0.096,0.5445,-0.201,-0.3445,-0.202,1.014,0.4475,0.9555,0.6425,0.4365,0.647,-0.0295,-0.3135
-0.5135,-0.608,-0.0945,0.5605,-0.2095,-0.3515,-0.2035,1.022,0.4635,0.929,0.608,0.411,0.6315,-0.025,-0.315
-0.5265,-0.627,-0.1005,0.5765,-0.2135,-0.364,-0.1915,1.0425,0.513,0.8945,0.565,0.378,0.6035,-0.0285,-0.323
-0.547,-0.6545,-0.1075,0.6005,-0.22,-0.381,-0.179,1.05,0.5575,0.8445,0.513,0.338,0.568,-0.0375,-0.329
-0.5425,-0.655,-0.1125,0.5985,-0.215,-0.384,-0.161,1.0785,0.613,0.817,0.476,0.313,0.54,-0.0415,-0.3375
-0.5235,-0.6445,-0.121,0.584,-0.2015,-0.3825,-0.1415,1.143,0.7005,0.8205,0.4655,0.304,0.529,-0.042,-0.355
-0.506,-0.6325,-0.1265,0.569,-0.19,-0.3795,-0.1175,1.223,0.8105,0.8335,0.458,0.2935,0.517,-0.034,-0.382
-0.501,-0.6265,-0.1255,0.5635,-0.188,-0.376,-0.085,1.302,0.915,0.8425,0.44,0.2755,0.493,-0.0235,-0.407
-0.512,-0.628,-0.116,0.57,-0.198,-0.372,-0.036,1.3715,1.01,0.847,0.421,0.2575,0.469,-0.0015,-0.4335
-0.5325,-0.611,-0.0785,0.5715,-0.2275,-0.345,-0.021,1.44,1.1135,0.859,0.4175,0.256,0.456,0.0425,-0.4555
-0.5515,-0.5915,-0.0405,0.571,-0.256,-0.316,-0.0075,1.489,1.1975,0.8595,0.4075,0.25,0.44,0.0885,-0.475
-0.5545,-0.592,-0.0375,0.573,-0.259,-0.315,0.0275,1.5015,1.2475,0.834,0.379,0.227,0.4135,0.1145,-0.4865
-0.588,-0.58,0.0075,0.584,-0.298,-0.2865,0.0535,1.505,1.2735,0.813,0.363,0.221,0.3915,0.142,-0.483
-0.6455,-0.581,0.0645,0.613,-0.3555,-0.258,0.087,1.516,1.31,0.7965,0.347,0.216,0.363,0.1605,-0.487
-0.6945,-0.6085,0.0855,0.6515,-0.3905,-0.261,0.107,1.5145,1.3365,0.768,0.323,0.199,0.3305,0.159,-0.492
-0.7205,-0.6055,0.114,0.663,-0.4175,-0.2455,0.1265,1.5055,1.338,0.744,0.3025,0.1835,0.301,0.1595,-0.495
-0.739,-0.602,0.1365,0.67,-0.438,-0.2325,0.1585,1.482,1.334,0.713,0.274,0.1625,0.264,0.1575,-0.4955
-0.753,-0.597,0.1555,0.6745,-0.4545,-0.2205,0.188,1.454,1.311,0.686,0.2525,0.148,0.2365,0.1645,-0.491
-0.7685,-0.6075,0.1605,0.688,-0.465,-0.2235,0.186,1.415,1.2755,0.6495,0.226,0.1285,0.2145,0.163,-0.479
-0.7835,-0.6295,0.1535,0.7065,-0.469,-0.2375,0.1905,1.3945,1.289,0.6195,0.2035,0.1135,0.192,0.1485,-0.475
-0.792,-0.642,0.149,0.7165,-0.471,-0.246,0.203,1.371,1.2815,0.592,0.18,0.0955,0.1745,0.136,-0.471
-0.826,-0.671,0.1545,0.7485,-0.4905,-0.258,0.1825,1.2725,1.1625,0.526,0.134,0.0595,0.1485,0.126,-0.4455
-0.8265,-0.6795,0.1465,0.753,-0.487,-0.266,0.1825,1.1905,1.071,0.474,0.099,0.0365,0.1195,0.1085,-0.423
-0.846,-0.698,0.1475,0.7715,-0.497,-0.275,0.1975,1.1225,1.001,0.4255,0.0665,0.011,0.0875,0.0835,-0.406
-0.9095,-0.736,0.173,0.8225,-0.542,-0.2815,0.1875,0.9645,0.8205,0.3415,0.0185,-0.0195,0.051,0.0675,-0.3615
-0.963,-0.7765,0.186,0.8695,-0.575,-0.295,0.1695,0.7795,0.626,0.237,-0.0405,-0.057,0.008,0.0485,-0.3095
-1.018,-0.8335,0.184,0.9255,-0.6015,-0.3245,0.167,0.6085,0.454,0.1325,-0.104,-0.1065,-0.046,0.0205,-0.276
-1.0535,-0.8845,0.1685,0.9685,-0.6115,-0.358,0.1685,0.4265,0.268,0.0315,-0.164,-0.147,-0.0935,-0.019,-0.238
-1.088,-0.9195,0.1685,1.0035,-0.629,-0.3755,0.173,0.243,0.0865,-0.073,-0.222,-0.1855,-0.1405,-0.0525,-0.196
-1.1065,-0.9405,0.1655,1.0235,-0.6365,-0.387,0.1795,0.073,-0.0805,-0.168,-0.2715,-0.2175,-0.186,-0.081,-0.1545
-1.115,-0.9595,0.155,1.037,-0.6355,-0.402,0.1805,-0.043,-0.1925,-0.233,-0.3065,-0.24,-0.2105,-0.099,-0.126
-1.127,-0.988,0.139,1.057,-0.6335,-0.424,0.187,-0.1225,-0.2745,-0.28,-0.337,-0.262,-0.232,-0.116,-0.109
-1.116,-1.004,0.1115,1.06,-0.614,-0.446,0.1885,-0.16,-0.326,-0.3015,-0.35,-0.2725,-0.245,-0.1475,-0.095
-1.1125,-1.02,0.0925,1.066,-0.603,-0.4635,0.185,-0.173,-0.362,-0.307,-0.3535,-0.275,-0.2455,-0.165,-0.0815
-1.1125,-1.033,0.079,1.0725,-0.5965,-0.477,0.183,-0.197,-0.4115,-0.32,-0.3625,-0.283,-0.2485,-0.18,-0.071
-1.0975,-1.023,0.074,1.06,-0.586,-0.4745,0.1745,-0.221,-0.4645,-0.3285,-0.365,-0.285,-0.2485,-0.189,-0.061
-1.087,-1.023,0.064,1.0545,-0.576,-0.479,0.1695,-0.246,-0.518,-0.337,-0.3715,-0.2875,-0.252,-0.1915,-0.0455
-1.076,-1.02,0.056,1.048,-0.5665,-0.482,0.173,-0.2625,-0.552,-0.3445,-0.3755,-0.2935,-0.2595,-0.199,-0.039
-1.08,-1.0235,0.0565,1.0515,-0.5685,-0.4835,0.171,-0.285,-0.5855,-0.356,-0.38,-0.2965,-0.2605,-0.1985,-0.0295
-1.09,-1.039,0.0505,1.064,-0.5705,-0.494,0.174,-0.3085,-0.6165,-0.3685,-0.3875,-0.3015,-0.2635,-0.202,-0.0225
-1.0795,-1.0405,0.039,1.0595,-0.5595,-0.5005,0.1955,-0.3115,-0.617,-0.366,-0.3845,-0.2975,-0.267,-0.2075,-0.024
-1.077,-1.0395,0.0375,1.058,-0.5575,-0.501,0.2045,-0.3115,-0.619,-0.361,-0.382,-0.293,-0.2655,-0.2105,-0.025
-1.083,-1.038,0.045,1.06,-0.564,-0.4965,0.2045,-0.321,-0.6275,-0.365,-0.383,-0.293,-0.266,-0.2125,-0.0245
-1.077,-1.0345,0.043,1.0555,-0.5605,-0.4955,0.2035,-0.3275,-0.6425,-0.367,-0.3835,-0.2925,-0.267,-0.207,-0.023
-1.073,-1.0285,0.0445,1.0505,-0.559,-0.492,0.1965,-0.336,-0.666,-0.369,-0.386,-0.2955,-0.2675,-0.202,-0.018
-1.0805,-1.029,0.052,1.0545,-0.5665,-0.4885,0.204,-0.346,-0.6805,-0.371,-0.384,-0.291,-0.271,-0.193,-0.013
-1.098,-1.042,0.056,1.07,-0.5775,-0.493,0.197,-0.354,-0.6985,-0.3735,-0.384,-0.29,-0.2675,-0.1815,-0.0115
-1.1015,-1.041,0.0605,1.071,-0.5815,-0.4905,0.1815,-0.36,-0.713,-0.3755,-0.3845,-0.2885,-0.263,-0.1785,-0.0045
-1.074,-1.009,0.065,1.041,-0.57,-0.4715,0.185,-0.361,-0.7215,-0.37,-0.3775,-0.2795,-0.267,-0.1725,0.0015
-1.062,-0.9975,0.064,1.0295,-0.5635,-0.4665,0.1815,-0.36,-0.723,-0.368,-0.373,-0.2755,-0.265,-0.166,0.005
-1.0755,-1.014,0.061,1.0445,-0.569,-0.476,0.173,-0.358,-0.7205,-0.3675,-0.3745,-0.276,-0.2585,-0.169,0.0115
-1.093,-1.0275,0.065,1.06,-0.5795,-0.481,0.171,-0.353,-0.7095,-0.3655,-0.374,-0.278,-0.2585,-0.1655,0.01
-1.097,-1.028,0.0685,1.062,-0.583,-0.4795,0.1775,-0.344,-0.693,-0.362,-0.367,-0.273,-0.259,-0.16,0.004
-1.0785,-1.007,0.071,1.0425,-0.5755,-0.468,0.1895,-0.3295,-0.678,-0.3465,-0.356,-0.2605,-0.253,-0.1585,0.0
-1.0675,-0.9865,0.0805,1.0265,-0.5745,-0.4525,0.205,-0.3105,-0.6545,-0.3305,-0.3425,-0.249,-0.2445,-0.1465,-0.012
-1.0705,-0.985,0.085,1.0275,-0.578,-0.45,0.2105,-0.298,-0.64,-0.3235,-0.337,-0.2455,-0.238,-0.1325,-0.028
-1.0715,-0.9845,0.0865,1.0275,-0.5795,-0.4485,0.2135,-0.283,-0.624,-0.31,-0.3275,-0.237,-0.2285,-0.13,-0.038
-1.059,-0.9615,0.0965,1.01,-0.578,-0.4325,0.215,-0.2615,-0.603,-0.2885,-0.306,-0.218,-0.2145,-0.1275,-0.0415
-1.0505,-0.938,0.1115,0.994,-0.5815,-0.413,0.211,-0.2445,-0.587,-0.273,-0.291,-0.206,-0.2085,-0.116,-0.044
-1.056,-0.932,0.1235,0.994,-0.59,-0.404,0.2165,-0.2405,-0.5785,-0.268,-0.284,-0.201,-0.209,-0.1065,-0.05
-1.0655,-0.9325,0.1325,0.999,-0.5995,-0.4,0.2065,-0.2415,-0.579,-0.261,-0.2765,-0.192,-0.2025,-0.1015,-0.0495
-1.073,-0.9245,0.148,0.9985,-0.611,-0.388,0.2025,-0.2335,-0.5745,-0.2495,-0.2645,-0.1805,-0.193,-0.084,-0.051
-1.072,-0.92,0.1515,0.996,-0.6125,-0.384,0.197,-0.222,-0.5655,-0.2375,-0.2525,-0.1695,-0.1805,-0.0725,-0.057
-1.07,-0.918,0.1515,0.994,-0.6115,-0.383,0.191,-0.212,-0.5545,-0.2275,-0.2455,-0.1625,-0.17,-0.0685,-0.0595
-1.061,-0.906,0.1545,0.983,-0.608,-0.3755,0.1865,-0.204,-0.5425,-0.219,-0.238,-0.155,-0.1635,-0.0595,-0.062
-1.0515,-0.8985,0.1525,0.9745,-0.6025,-0.373,0.1755,-0.1985,-0.536,-0.214,-0.2315,-0.1495,-0.1575,-0.058,-0.063
-1.0455,-0.8905,0.1545,0.9675,-0.6005,-0.3675,0.1825,-0.197,-0.5325,-0.21,-0.226,-0.1445,-0.1555,-0.058,-0.0655
-1.044,-0.887,0.157,0.965,-0.601,-0.365,0.189,-0.1835,-0.5165,-0.199,-0.217,-0.138,-0.151,-0.0595,-0.0705
-1.045,-0.89,0.1545,0.9675,-0.6005,-0.3675,0.189,-0.1755,-0.5035,-0.194,-0.212,-0.1345,-0.1465,-0.064,-0.0745
-1.045,-0.891,0.1535,0.9675,-0.5995,-0.3685,0.189,-0.177,-0.494,-0.195,-0.211,-0.132,-0.145,-0.0595,-0.0765
-1.0555,-0.893,0.162,0.974,-0.609,-0.365,0.1955,-0.174,-0.4905,-0.1955,-0.212,-0.133,-0.148,-0.052,-0.0765
-1.0555,-0.8835,0.1715,0.9695,-0.614,-0.356,0.194,-0.1745,-0.498,-0.1955,-0.2115,-0.135,-0.1525,-0.0435,-0.0805
-1.0455,-0.8735,0.1715,0.9595,-0.609,-0.351,0.1965,-0.175,-0.494,-0.196,-0.2125,-0.1355,-0.156,-0.0445,-0.085
-1.0445,-0.8775,0.1665,0.961,-0.606,-0.3555,0.1985,-0.1735,-0.485,-0.196,-0.2135,-0.1375,-0.1555,-0.051,-0.088
-1.0535,-0.8895,0.164,0.971,-0.6095,-0.3625,0.186,-0.174,-0.482,-0.198,-0.218,-0.1435,-0.1535,-0.0515,-0.0885
-1.057,-0.8975,0.1595,0.977,-0.609,-0.3685,0.1795,-0.175,-0.48,-0.2,-0.2215,-0.1465,-0.1525,-0.06,-0.0865
-1.048,-0.89,0.1575,0.969,-0.603,-0.366,0.1885,-0.1675,-0.47,-0.1915,-0.216,-0.1395,-0.154,-0.07,-0.0885
-1.0325,-0.8785,0.154,0.9555,-0.5935,-0.362,0.184,-0.1595,-0.4605,-0.186,-0.2125,-0.1365,-0.153,-0.0765,-0.0855
-1.02,-0.8815,0.138,0.9505,-0.5795,-0.3715,0.1545,-0.157,-0.454,-0.186,-0.211,-0.137,-0.1435,-0.086,-0.0775
-1.0135,-0.8945,0.1185,0.954,-0.5665,-0.3875,0.1305,-0.1525,-0.446,-0.184,-0.2085,-0.136,-0.1315,-0.099,-0.074
-1.007,-0.893,0.1135,0.9495,-0.5605,-0.3895,0.114,-0.1415,-0.432,-0.175,-0.202,-0.129,-0.1195,-0.0995,-0.0705
-0.999,-0.884,0.1145,0.9415,-0.557,-0.3845,0.0995,-0.1295,-0.4155,-0.165,-0.1935,-0.121,-0.111,-0.0895,-0.07
-0.994,-0.882,0.111,0.938,-0.553,-0.385,0.073,-0.1205,-0.4055,-0.157,-0.186,-0.114,-0.097,-0.088,-0.0655
-0.9945,-0.896,0.0985,0.945,-0.547,-0.3985,0.0345,-0.1205,-0.4025,-0.155,-0.1865,-0.1145,-0.084,-0.0855,-0.057
-0.982,-0.8865,0.0955,0.934,-0.539,-0.3955,0.007,-0.111,-0.3925,-0.148,-0.1795,-0.108,-0.0765,-0.084,-0.0505
-0.953,-0.8595,0.0935,0.906,-0.524,-0.383,-0.0175,-0.1005,-0.3815,-0.1395,-0.17,-0.0985,-0.0615,-0.0785,-0.042
-0.904,-0.855,0.0485,0.879,-0.4765,-0.403,-0.0535,-0.1035,-0.379,-0.144,-0.1765,-0.107,-0.049,-0.076,-0.0385
-0.903,-0.864,0.0395,0.883,-0.4715,-0.412,-0.0755,-0.095,-0.37,-0.138,-0.1715,-0.1025,-0.041,-0.081,-0.0375
-0.9465,-0.8665,0.0795,0.9065,-0.5135,-0.3935,-0.075,-0.0755,-0.35,-0.12,-0.1545,-0.0865,-0.0345,-0.0865,-0.0355
-0.9435,-0.851,0.092,0.897,-0.5185,-0.379,-0.0865,-0.0615,-0.3325,-0.107,-0.142,-0.076,-0.0255,-0.0975,-0.0295
-0.907,-0.843,0.0635,0.8745,-0.4855,-0.3895,-0.1135,-0.0585,-0.327,-0.107,-0.1395,-0.074,-0.0095,-0.107,-0.021
-0.881,-0.8405,0.04,0.8605,-0.4605,-0.4005,-0.126,-0.051,-0.317,-0.0995,-0.133,-0.0675,0.0035,-0.112,-0.0165
-0.8985,-0.8595,0.039,0.8785,-0.469,-0.41,-0.137,-0.041,-0.3085,-0.091,-0.128,-0.064,0.011,-0.1135,-0.014
-0.896,-0.87,0.026,0.8825,-0.4615,-0.422,-0.15,-0.0435,-0.3045,-0.094,-0.1305,-0.065,0.016,-0.1205,-0.009
-0.875,-0.8565,0.0185,0.8655,-0.447,-0.419,-0.155,-0.0415,-0.298,-0.09,-0.1265,-0.0615,0.023,-0.1245,-0.0085
-0.8605,-0.8475,0.013,0.854,-0.437,-0.417,-0.1595,-0.0265,-0.2845,-0.081,-0.116,-0.0545,0.0345,-0.1295,-0.006
-0.8505,-0.848,0.0025,0.849,-0.4265,-0.423,-0.169,-0.0215,-0.276,-0.0755,-0.1125,-0.051,0.0445,-0.143,0.002
-0.8525,-0.8555,-0.0025,0.854,-0.4255,-0.429,-0.1945,-0.021,-0.2735,-0.0725,-0.1125,-0.053,0.056,-0.1435,0.008
-0.8345,-0.851,-0.016,0.8425,-0.4095,-0.4335,-0.205,-0.011,-0.263,-0.066,-0.1045,-0.0455,0.0675,-0.15,0.0115
-0.8335,-0.864,-0.0305,0.8485,-0.402,-0.447,-0.2075,-0.0065,-0.256,-0.0665,-0.106,-0.048,0.0765,-0.158,0.013
-0.848,-0.8795,-0.0315,0.8635,-0.4085,-0.4555,-0.2195,-0.0115,-0.2575,-0.0725,-0.1115,-0.0535,0.084,-0.158,0.0135
-0.8405,-0.876,-0.036,0.858,-0.4025,-0.456,-0.224,-0.008,-0.25,-0.068,-0.1055,-0.047,0.0875,-0.161,0.0145
-0.8245,-0.877,-0.0525,0.8505,-0.386,-0.465,-0.2305,-0.001,-0.243,-0.0615,-0.097,-0.041,0.0955,-0.168,0.017
-0.81,-0.874,-0.064,0.8415,-0.373,-0.469,-0.2335,-0.001,-0.2415,-0.0615,-0.0965,-0.041,0.1015,-0.1745,0.018
-0.8015,-0.871,-0.069,0.836,-0.3665,-0.47,-0.2315,0.004,-0.2345,-0.059,-0.0945,-0.04,0.1075,-0.175,0.02
-0.8085,-0.8825,-0.0745,0.8455,-0.3675,-0.4785,-0.2415,0.003,-0.234,-0.059,-0.0935,-0.0405,0.114,-0.1755,0.0225
-0.804,-0.8765,-0.0725,0.84,-0.366,-0.4745,-0.244,0.009,-0.223,-0.055,-0.092,-0.0385,0.1165,-0.1755,0.02
-0.7935,-0.8735,-0.08,0.8335,-0.357,-0.477,-0.2375,0.016,-0.2145,-0.05,-0.087,-0.0355,0.119,-0.183,0.0175
-0.803,-0.886,-0.083,0.8445,-0.36,-0.4845,-0.24,0.0135,-0.2175,-0.051,-0.09,-0.0365,0.1195,-0.187,0.0195
-0.81,-0.8945,-0.085,0.852,-0.363,-0.4895,-0.2425,0.0155,-0.214,-0.0495,-0.091,-0.036,0.121,-0.193,0.0225
-0.806,-0.8995,-0.0935,0.8525,-0.3565,-0.4965,-0.2475,0.017,-0.2115,-0.049,-0.091,-0.037,0.123,-0.201,0.0215
-0.8055,-0.886,-0.0805,0.8455,-0.363,-0.483,-0.2485,0.0185,-0.2105,-0.0475,-0.0905,-0.0345,0.1255,-0.195,0.0225
-0.799,-0.8795,-0.081,0.839,-0.3595,-0.48,-0.256,0.0185,-0.211,-0.0485,-0.091,-0.0355,0.128,-0.193,0.0225
-0.791,-0.886,-0.0945,0.838,-0.3485,-0.4905,-0.2605,0.019,-0.205,-0.049,-0.094,-0.0365,0.129,-0.2,0.0235
-0.7845,-0.8825,-0.0985,0.8335,-0.3435,-0.4905,-0.2565,0.024,-0.2015,-0.0465,-0.089,-0.0335,0.1315,-0.2065,0.0255
-0.7855,-0.88,-0.095,0.8325,-0.3455,-0.4875,-0.256,0.0275,-0.202,-0.043,-0.087,-0.0325,0.132,-0.2075,0.025
-0.796,-0.8805,-0.0845,0.838,-0.356,-0.4825,-0.255,0.0295,-0.197,-0.0405,-0.0855,-0.03,0.1335,-0.2055,0.024
-0.79,-0.876,-0.086,0.8325,-0.352,-0.481,-0.2565,0.0335,-0.1915,-0.037,-0.0795,-0.027,0.139,-0.202,0.0255
-0.777,-0.874,-0.097,0.825,-0.3405,-0.4855,-0.259,0.0305,-0.1925,-0.04,-0.0815,-0.0275,0.142,-0.199,0.03
-0.762,-0.8665,-0.1045,0.814,-0.329,-0.4855,-0.2605,0.031,-0.1925,-0.04,-0.082,-0.0285,0.142,-0.2005,0.0295
-0.7575,-0.8675,-0.11,0.8125,-0.324,-0.489,-0.261,0.0305,-0.1925,-0.039,-0.0815,-0.028,0.1435,-0.2045,0.029
-0.776,-0.8835,-0.1075,0.8295,-0.3345,-0.4955,-0.2635,0.0245,-0.1965,-0.0455,-0.086,-0.033,0.141,-0.1995,0.0285
-0.792,-0.896,-0.1045,0.8435,-0.344,-0.5,-0.2675,0.024,-0.1985,-0.0475,-0.0875,-0.0365,0.1395,-0.1975,0.028
-0.792,-0.897,-0.105,0.8445,-0.344,-0.501,-0.273,0.0195,-0.2015,-0.049,-0.088,-0.039,0.141,-0.204,0.029
-0.7885,-0.8895,-0.101,0.8385,-0.344,-0.495,-0.2755,0.024,-0.198,-0.0445,-0.0835,-0.0345,0.144,-0.209,0.032
-0.789,-0.8815,-0.0925,0.835,-0.3485,-0.487,-0.266,0.031,-0.194,-0.0385,-0.0775,-0.028,0.1455,-0.2015,0.0315
-0.779,-0.8715,-0.0925,0.825,-0.3435,-0.482,-0.2655,0.0295,-0.1945,-0.041,-0.078,-0.03,0.1425,-0.202,0.0295
-0.778,-0.882,-0.104,0.8295,-0.3375,-0.493,-0.273,0.0285,-0.1975,-0.042,-0.078,-0.0305,0.142,-0.2145,0.0315
-0.7855,-0.8915,-0.106,0.8385,-0.34,-0.4985,-0.275,0.0255,-0.1995,-0.0435,-0.08,-0.033,0.141,-0.21,0.029
-0.7895,-0.8955,-0.1055,0.842,-0.342,-0.5005,-0.274,0.0265,-0.196,-0.0455,-0.0825,-0.036,0.142,-0.207,0.031
-0.7895,-0.895,-0.105,0.842,-0.3425,-0.5,-0.2705,0.03,-0.192,-0.0415,-0.0805,-0.0335,0.146,-0.209,0.0335
-0.7805,-0.8815,-0.101,0.8305,-0.34,-0.491,-0.26,0.032,-0.191,-0.039,-0.077,-0.0295,0.141,-0.215,0.033
-0.8015,-0.8895,-0.088,0.8455,-0.357,-0.489,-0.2495,0.0285,-0.195,-0.0415,-0.081,-0.033,0.136,-0.2075,0.0295
-0.8005,-0.885,-0.084,0.8425,-0.3585,-0.4845,-0.2665,0.034,-0.187,-0.0365,-0.078,-0.03,0.14,-0.203,0.031
-0.788,-0.877,-0.089,0.8325,-0.3495,-0.4835,-0.275,0.039,-0.1815,-0.034,-0.074,-0.0255,0.142,-0.2135,0.033
-0.8095,-0.8995,-0.09,0.854,-0.36,-0.4945,-0.276,0.0325,-0.1885,-0.04,-0.08,-0.0325,0.142,-0.2125,0.0315
-0.7985,-0.8965,-0.0975,0.847,-0.351,-0.497,-0.2835,0.0335,-0.188,-0.039,-0.0785,-0.0335,0.1445,-0.2155,0.035
-0.7805,-0.885,-0.104,0.8325,-0.3385,-0.4945,-0.2795,0.0335,-0.1855,-0.0385,-0.0765,-0.0305,0.1485,-0.2155,0.036
-0.781,-0.887,-0.1055,0.8335,-0.338,-0.496,-0.279,0.0345,-0.1865,-0.038,-0.0755,-0.0295,0.1505,-0.2155,0.035
-0.8025,-0.9155,-0.1135,0.8585,-0.345,-0.5145,-0.29,0.0315,-0.1955,-0.0435,-0.0825,-0.0355,0.1485,-0.224,0.035
-0.798,-0.915,-0.1175,0.856,-0.3405,-0.516,-0.2865,0.035,-0.1895,-0.0405,-0.0805,-0.0315,0.1515,-0.225,0.0355
-0.7575,-0.856,-0.099,0.8065,-0.3295,-0.4775,-0.2705,0.048,-0.175,-0.0275,-0.067,-0.0175,0.1545,-0.2155,0.0335
-0.7585,-0.849,-0.0905,0.8035,-0.3345,-0.4695,-0.2735,0.0455,-0.1795,-0.0295,-0.0705,-0.02,0.1535,-0.2155,0.033
-0.754,-0.8605,-0.1065,0.807,-0.324,-0.4835,-0.273,0.0475,-0.1765,-0.0255,-0.068,-0.0165,0.1535,-0.22,0.0335
-0.7375,-0.8565,-0.119,0.797,-0.3095,-0.4875,-0.272,0.051,-0.171,-0.0225,-0.0635,-0.015,0.1535,-0.2185,0.0345
-0.7405,-0.8545,-0.114,0.7975,-0.3135,-0.4845,-0.2735,0.0485,-0.1735,-0.0245,-0.0675,-0.018,0.1535,-0.219,0.0335
-0.75,-0.859,-0.109,0.804,-0.3205,-0.484,-0.2715,0.0455,-0.1735,-0.0255,-0.07,-0.0185,0.1525,-0.2145,0.028
-0.77,-0.887,-0.1165,0.828,-0.327,-0.502,-0.2785,0.037,-0.181,-0.0345,-0.077,-0.026,0.153,-0.2135,0.0305
-0.768,-0.887,-0.119,0.8275,-0.325,-0.503,-0.2805,0.038,-0.1785,-0.037,-0.079,-0.0285,0.1535,-0.219,0.0335
-0.7635,-0.877,-0.1135,0.82,-0.325,-0.4955,-0.2755,0.042,-0.1745,-0.032,-0.075,-0.023,0.1525,-0.214,0.0315
-0.7745,-0.883,-0.1085,0.8285,-0.333,-0.496,-0.275,0.037,-0.1815,-0.0325,-0.0745,-0.02,0.1525,-0.2115,0.0325
-0.7795,-0.8915,-0.112,0.8355,-0.334,-0.5015,-0.2775,0.037,-0.1785,-0.0365,-0.075,-0.0225,0.153,-0.215,0.0325
-0.7775,-0.894,-0.116,0.8355,-0.331,-0.505,-0.284,0.0375,-0.1755,-0.036,-0.0765,-0.023,0.155,-0.2115,0.0315
-0.7735,-0.888,-0.1145,0.8305,-0.33,-0.5015,-0.283,0.036,-0.179,-0.0365,-0.0775,-0.0245,0.154,-0.212,0.033
-0.777,-0.894,-0.1165,0.835,-0.3305,-0.505,-0.282,0.0345,-0.182,-0.042,-0.0805,-0.0285,0.1525,-0.2235,0.032
-0.75,-0.881,-0.131,0.815,-0.3095,-0.506,-0.2845,0.0345,-0.1795,-0.0415,-0.0805,-0.0285,0.154,-0.231,0.033
-0.7325,-0.8725,-0.1395,0.8025,-0.2965,-0.506,-0.273,0.039,-0.175,-0.0355,-0.073,-0.023,0.1535,-0.232,0.0355
-0.7405,-0.874,-0.1335,0.807,-0.3035,-0.504,-0.2725,0.045,-0.1695,-0.03,-0.067,-0.0175,0.1565,-0.226,0.0335
-0.7325,-0.87,-0.1375,0.801,-0.298,-0.504,-0.279,0.045,-0.169,-0.0305,-0.0665,-0.0195,0.158,-0.225,0.034
-0.7495,-0.8835,-0.134,0.8165,-0.308,-0.509,-0.28,0.036,-0.176,-0.0375,-0.0735,-0.026,0.157,-0.227,0.0365
-0.7545,-0.8745,-0.12,0.814,-0.3175,-0.497,-0.2715,0.043,-0.1685,-0.033,-0.07,-0.0225,0.156,-0.2265,0.0345
-0.742,-0.8565,-0.114,0.799,-0.3145,-0.485,-0.271,0.0495,-0.1635,-0.0265,-0.0635,-0.016,0.158,-0.219,0.0355
-0.746,-0.8615,-0.1155,0.8035,-0.3155,-0.4885,-0.2855,0.046,-0.166,-0.0265,-0.0645,-0.0175,0.1625,-0.2155,0.038
-0.757,-0.875,-0.118,0.816,-0.32,-0.4965,-0.2785,0.041,-0.1725,-0.031,-0.069,-0.0235,0.1585,-0.2135,0.035
-0.7595,-0.8835,-0.124,0.8215,-0.3185,-0.504,-0.282,0.0425,-0.1705,-0.0295,-0.069,-0.0225,0.157,-0.21,0.0335
-0.752,-0.8805,-0.1285,0.816,-0.312,-0.5045,-0.282,0.046,-0.167,-0.024,-0.062,-0.016,0.1605,-0.217,0.0345
-0.747,-0.878,-0.131,0.8125,-0.308,-0.5045,-0.2775,0.046,-0.1675,-0.027,-0.0665,-0.0185,0.1605,-0.2205,0.0325
-0.7345,-0.8695,-0.135,0.802,-0.3,-0.502,-0.2715,0.053,-0.1585,-0.023,-0.064,-0.0165,0.1565,-0.225,0.029
-0.7325,-0.871,-0.1385,0.8015,-0.297,-0.505,-0.2885,0.041,-0.1705,-0.034,-0.071,-0.022,0.158,-0.224,0.034
-0.7425,-0.8915,-0.149,0.8165,-0.297,-0.52,-0.31,0.0315,-0.175,-0.0435,-0.084,-0.033,0.1615,-0.228,0.037
-0.748,-0.885,-0.1375,0.816,-0.3055,-0.511,-0.2815,0.04,-0.17,-0.036,-0.0765,-0.025,0.1595,-0.2265,0.032
-0.7505,-0.867,-0.1165,0.8085,-0.317,-0.4915,-0.2715,0.0525,-0.157,-0.0255,-0.066,-0.012,0.162,-0.2235,0.0335
-0.7605,-0.876,-0.1155,0.818,-0.323,-0.4955,-0.2655,0.0545,-0.1505,-0.0235,-0.066,-0.0115,0.161,-0.2305,0.034
-0.7565,-0.874,-0.117,0.815,-0.32,-0.4955,-0.263,0.0505,-0.1535,-0.029,-0.0715,-0.0155,0.16,-0.2245,0.0335
-0.746,-0.871,-0.125,0.8085,-0.311,-0.498,-0.2725,0.0525,-0.151,-0.029,-0.071,-0.0155,0.1635,-0.2215,0.0335
-0.7605,-0.89,-0.1295,0.825,-0.3155,-0.51,-0.279,0.0475,-0.157,-0.0335,-0.074,-0.019,0.1655,-0.2275,0.0355
-0.762,-0.894,-0.1315,0.8275,-0.3155,-0.5125,-0.281,0.041,-0.155,-0.035,-0.076,-0.019,0.166,-0.2325,0.038
-0.7545,-0.8985,-0.144,0.8265,-0.3055,-0.521,-0.279,0.038,-0.1635,-0.0395,-0.0805,-0.025,0.165,-0.2295,0.0365
-0.762,-0.907,-0.145,0.8345,-0.309,-0.526,-0.2865,0.042,-0.1655,-0.041,-0.0835,-0.029,0.163,-0.2275,0.0345
-0.762,-0.8935,-0.1315,0.8275,-0.3155,-0.5125,-0.2795,0.05,-0.1555,-0.0305,-0.073,-0.018,0.1645,-0.229,0.0345
-0.759,-0.877,-0.1185,0.818,-0.3205,-0.498,-0.2805,0.053,-0.153,-0.027,-0.07,-0.0155,0.1635,-0.229,0.0355
-0.7525,-0.87,-0.1175,0.811,-0.3175,-0.494,-0.279,0.0535,-0.1505,-0.0265,-0.0715,-0.0175,0.16,-0.2245,0.0325
-0.7465,-0.8725,-0.126,0.8095,-0.3105,-0.4995,-0.269,0.058,-0.146,-0.02,-0.0685,-0.015,0.162,-0.2255,0.0315
-0.745,-0.876,-0.1315,0.8105,-0.307,-0.504,-0.2725,0.0615,-0.141,-0.0175,-0.068,-0.0145,0.162,-0.2255,0.031
-0.755,-0.8845,-0.1295,0.8195,-0.313,-0.507,-0.2725,0.0575,-0.1455,-0.023,-0.072,-0.0185,0.1615,-0.224,0.0315
-0.761,-0.8885,-0.1275,0.824,-0.317,-0.508,-0.27,0.0555,-0.147,-0.0245,-0.0715,-0.0205,0.1615,-0.2265,0.032
-0.7495,-0.879,-0.13,0.814,-0.31,-0.5045,-0.2745,0.0595,-0.1435,-0.0205,-0.068,-0.0185,0.164,-0.2255,0.0305
-0.7505,-0.882,-0.1315,0.8155,-0.3095,-0.5065,-0.276,0.063,-0.1375,-0.017,-0.068,-0.018,0.1625,-0.229,0.0305
-0.7465,-0.882,-0.136,0.814,-0.3055,-0.509,-0.2705,0.065,-0.1345,-0.0155,-0.067,-0.017,0.16,-0.23,0.0305
-0.7565,-0.887,-0.1305,0.8215,-0.313,-0.509,-0.278,0.06,-0.14,-0.0195,-0.0705,-0.0215,0.162,-0.229,0.031
-0.763,-0.89,-0.1265,0.826,-0.3185,-0.508,-0.283,0.0565,-0.139,-0.024,-0.0755,-0.025,0.1615,-0.226,0.029
-0.741,-0.8705,-0.1295,0.8055,-0.306,-0.5,-0.2765,0.062,-0.133,-0.0195,-0.069,-0.0175,0.162,-0.2305,0.0315
-0.7285,-0.86,-0.1315,0.794,-0.299,-0.4955,-0.278,0.064,-0.1345,-0.0165,-0.0645,-0.0155,0.165,-0.2325,0.0315
-0.7375,-0.8725,-0.1345,0.8045,-0.3015,-0.5035,-0.2835,0.0575,-0.1395,-0.0235,-0.0715,-0.0235,0.161,-0.2285,0.0285
-0.7325,-0.87,-0.1375,0.801,-0.298,-0.5035,-0.28,0.0625,-0.134,-0.0215,-0.069,-0.023,0.1585,-0.229,0.026
-0.7315,-0.8675,-0.1365,0.799,-0.298,-0.502,-0.275,0.067,-0.1295,-0.0195,-0.066,-0.0215,0.16,-0.2295,0.026
-0.7325,-0.867,-0.1345,0.799,-0.299,-0.5005,-0.276,0.064,-0.132,-0.022,-0.067,-0.023,0.155,-0.228,0.0265
-0.7185,-0.8545,-0.1365,0.786,-0.291,-0.4955,-0.2755,0.068,-0.1295,-0.0185,-0.063,-0.019,0.159,-0.2285,0.028
-0.7475,-0.885,-0.1375,0.816,-0.3055,-0.511,-0.2895,0.059,-0.138,-0.0285,-0.071,-0.029,0.164,-0.2335,0.031
-0.7575,-0.8995,-0.142,0.8285,-0.308,-0.5205,-0.299,0.0545,-0.1435,-0.0325,-0.0745,-0.0335,0.1655,-0.239,0.0305
-0.7465,-0.8885,-0.1425,0.817,-0.3025,-0.5155,-0.2925,0.0595,-0.138,-0.024,-0.0675,-0.0285,0.167,-0.2345,0.0285
-0.7435,-0.884,-0.1405,0.8135,-0.302,-0.512,-0.2835,0.061,-0.137,-0.024,-0.0665,-0.027,0.1635,-0.22,0.0265
-0.747,-0.881,-0.134,0.814,-0.307,-0.5075,-0.2795,0.0675,-0.13,-0.02,-0.065,-0.0235,0.163,-0.213,0.025
-0.7715,-0.896,-0.1245,0.8335,-0.324,-0.5105,-0.2835,0.068,-0.129,-0.0195,-0.0635,-0.026,0.1675,-0.214,0.025
-0.756,-0.889,-0.133,0.8225,-0.312,-0.511,-0.2795,0.069,-0.1315,-0.016,-0.058,-0.0195,0.1715,-0.226,0.0315
-0.741,-0.8775,-0.1365,0.809,-0.3025,-0.507,-0.271,0.069,-0.123,-0.0135,-0.0565,-0.0165,0.165,-0.22,0.029
-0.7525,-0.878,-0.1255,0.815,-0.314,-0.5015,-0.2515,0.0735,-0.1255,-0.014,-0.057,-0.0175,0.1615,-0.212,0.0205
-0.762,-0.8925,-0.1305,0.827,-0.316,-0.5115,-0.263,0.079,-0.125,-0.012,-0.0575,-0.0185,0.165,-0.223,0.021
-0.758,-0.8995,-0.141,0.8285,-0.3085,-0.52,-0.296,0.0745,-0.119,-0.017,-0.062,-0.023,0.1685,-0.227,0.025
-0.758,-0.9005,-0.1425,0.829,-0.308,-0.5215,-0.302,0.071,-0.1215,-0.021,-0.069,-0.027,0.173,-0.226,0.0285
-0.7515,-0.8935,-0.142,0.8225,-0.305,-0.5175,-0.297,0.071,-0.1195,-0.0205,-0.0685,-0.028,0.171,-0.2195,0.026
-0.7255,-0.8695,-0.144,0.797,-0.2905,-0.5065,-0.282,0.0805,-0.1105,-0.0115,-0.0595,-0.02,0.1675,-0.224,0.0255
-0.7215,-0.8675,-0.1465,0.794,-0.2875,-0.507,-0.2775,0.087,-0.102,-0.006,-0.0565,-0.016,0.165,-0.2325,0.0265
-0.7295,-0.8715,-0.142,0.8,-0.294,-0.5065,-0.281,0.0845,-0.1055,-0.009,-0.058,-0.018,0.168,-0.233,0.027
-0.738,-0.877,-0.139,0.8075,-0.2995,-0.508,-0.2825,0.086,-0.1035,-0.0095,-0.061,-0.0195,0.17,-0.233,0.026
-0.736,-0.8765,-0.1405,0.806,-0.298,-0.5085,-0.289,0.09,-0.0965,-0.008,-0.059,-0.0165,0.1715,-0.2375,0.027
-0.7285,-0.87,-0.142,0.799,-0.2935,-0.506,-0.2865,0.093,-0.096,-0.008,-0.0565,-0.0125,0.1755,-0.233,0.028
-0.7085,-0.8525,-0.144,0.7805,-0.2825,-0.4985,-0.2775,0.099,-0.0885,-0.001,-0.051,-0.0085,0.176,-0.226,0.027
-0.6975,-0.845,-0.1475,0.771,-0.275,-0.4965,-0.2815,0.103,-0.0825,0.004,-0.048,-0.0045,0.18,-0.2325,0.029
-0.7165,-0.858,-0.142,0.787,-0.2875,-0.5,-0.2855,0.102,-0.084,0.0025,-0.0505,-0.0025,0.1825,-0.2355,0.028
-0.7375,-0.8725,-0.135,0.8045,-0.3015,-0.5035,-0.2885,0.099,-0.087,-0.0005,-0.0565,-0.0075,0.184,-0.235,0.029
-0.7565,-0.883,-0.127,0.8195,-0.315,-0.505,-0.292,0.097,-0.0905,-0.005,-0.0615,-0.012,0.1795,-0.223,0.0275
-0.7535,-0.8795,-0.126,0.8165,-0.314,-0.503,-0.294,0.099,-0.088,-0.002,-0.058,-0.01,0.177,-0.2175,0.027
-0.741,-0.879,-0.138,0.8095,-0.3015,-0.5085,-0.2935,0.1005,-0.0815,-0.001,-0.057,-0.0085,0.1855,-0.2245,0.0285
-0.735,-0.8775,-0.1425,0.806,-0.2965,-0.51,-0.295,0.099,-0.088,-0.0065,-0.0635,-0.015,0.1875,-0.226,0.025
-0.7345,-0.8885,-0.1545,0.811,-0.29,-0.5215,-0.3035,0.0885,-0.1,-0.015,-0.0745,-0.0275,0.1835,-0.225,0.021
-0.7575,-0.9085,-0.151,0.833,-0.3035,-0.53,-0.305,0.0855,-0.097,-0.0175,-0.0765,-0.0295,0.1805,-0.226,0.019
-0.767,-0.903,-0.1355,0.8345,-0.316,-0.519,-0.3025,0.096,-0.0845,-0.008,-0.0665,-0.0225,0.185,-0.2275,0.0195
-0.742,-0.88,-0.138,0.811,-0.3025,-0.509,-0.2935,0.1105,-0.0715,0.0055,-0.054,-0.0115,0.1935,-0.225,0.021
-0.7245,-0.87,-0.1455,0.797,-0.29,-0.5075,-0.2925,0.1185,-0.064,0.012,-0.047,-0.004,0.1925,-0.227,0.0215
-0.727,-0.8745,-0.1475,0.8005,-0.29,-0.511,-0.2895,0.1205,-0.063,0.0125,-0.0455,-0.0035,0.1905,-0.228,0.0205
-0.719,-0.8695,-0.1505,0.794,-0.2845,-0.51,-0.289,0.121,-0.0635,0.014,-0.045,-0.004,0.1935,-0.2305,0.0205
-0.7135,-0.862,-0.1485,0.7875,-0.283,-0.505,-0.2915,0.1225,-0.0615,0.014,-0.044,-0.0035,0.197,-0.2345,0.0205
-0.728,-0.864,-0.136,0.796,-0.2965,-0.5,-0.2815,0.129,-0.0565,0.0175,-0.0405,0.0,0.197,-0.2295,0.0215
-0.727,-0.86,-0.133,0.793,-0.2975,-0.4965,-0.2835,0.1335,-0.0515,0.02,-0.039,0.0015,0.197,-0.22,0.018
-0.72,-0.8615,-0.141,0.7905,-0.2895,-0.501,-0.284,0.1375,-0.0475,0.024,-0.0345,0.0065,0.198,-0.224,0.02
-0.7215,-0.859,-0.1375,0.79,-0.2925,-0.498,-0.2825,0.1385,-0.0425,0.0265,-0.0315,0.01,0.201,-0.2255,0.0235
-0.7255,-0.8645,-0.139,0.7945,-0.2935,-0.5015,-0.291,0.134,-0.046,0.0195,-0.039,0.002,0.2045,-0.215,0.025
-0.7175,-0.874,-0.1565,0.7955,-0.281,-0.5155,-0.3,0.128,-0.051,0.012,-0.047,-0.007,0.2045,-0.216,0.024
-0.7005,-0.855,-0.1545,0.7775,-0.2735,-0.5045,-0.302,0.1275,-0.049,0.011,-0.0465,-0.004,0.2055,-0.214,0.021
-0.711,-0.8505,-0.1395,0.7805,-0.286,-0.495,-0.298,0.131,-0.044,0.0155,-0.042,-0.0005,0.207,-0.2115,0.0215
-0.7085,-0.8525,-0.144,0.7805,-0.2825,-0.4985,-0.299,0.1345,-0.0345,0.017,-0.042,0.0,0.2105,-0.215,0.022
-0.7085,-0.8615,-0.153,0.7845,-0.278,-0.5075,-0.305,0.1325,-0.0385,0.015,-0.0445,-0.004,0.2115,-0.216,0.0225
-0.7345,-0.879,-0.1445,0.8065,-0.2955,-0.512,-0.3,0.1305,-0.0405,0.0105,-0.0485,-0.009,0.208,-0.2175,0.019
-0.726,-0.867,-0.1415,0.7965,-0.2925,-0.504,-0.2985,0.1395,-0.03,0.016,-0.0425,-0.001,0.2115,-0.217,0.021
-0.7125,-0.8535,-0.1415,0.7825,-0.286,-0.4975,-0.2995,0.1445,-0.0235,0.0215,-0.0385,0.0035,0.2105,-0.208,0.02
-0.6995,-0.8395,-0.14,0.7695,-0.28,-0.49,-0.2875,0.148,-0.0165,0.0245,-0.0355,0.008,0.208,-0.199,0.0145
-0.694,-0.8325,-0.1385,0.763,-0.278,-0.4855,-0.288,0.152,-0.014,0.029,-0.0315,0.0105,0.2115,-0.2105,0.0125
-0.7085,-0.8455,-0.137,0.777,-0.286,-0.4915,-0.2915,0.147,-0.0215,0.023,-0.0375,0.0055,0.2105,-0.2115,0.0145
-0.705,-0.8505,-0.1455,0.7775,-0.28,-0.498,-0.295,0.149,-0.019,0.0225,-0.0365,0.0055,0.2135,-0.2045,0.016
-0.7,-0.852,-0.152,0.776,-0.274,-0.502,-0.2985,0.1535,-0.0125,0.025,-0.0345,0.006,0.215,-0.2095,0.013
-0.715,-0.856,-0.1415,0.7855,-0.287,-0.499,-0.2935,0.1535,-0.014,0.025,-0.0365,0.0065,0.212,-0.206,0.011
-0.711,-0.8485,-0.1375,0.7795,-0.287,-0.493,-0.291,0.16,-0.0065,0.0285,-0.032,0.009,0.2145,-0.209,0.01
-0.6815,-0.8395,-0.158,0.76,-0.262,-0.499,-0.2935,0.159,-0.0025,0.0275,-0.0325,0.006,0.2185,-0.208,0.01
-0.6965,-0.845,-0.1485,0.7705,-0.274,-0.497,-0.3,0.156,-0.0075,0.025,-0.0365,0.001,0.218,-0.195,0.006
-0.7305,-0.856,-0.1255,0.793,-0.303,-0.4905,-0.299,0.161,-0.003,0.0295,-0.033,0.003,0.214,-0.201,0.008
-0.7265,-0.85,-0.1235,0.788,-0.302,-0.4865,-0.298,0.166,0.0005,0.034,-0.0275,0.007,0.217,-0.208,0.011
-0.7065,-0.8335,-0.1265,0.7695,-0.29,-0.48,-0.287,0.1735,0.007,0.039,-0.0225,0.012,0.222,-0.2055,0.009
-0.704,-0.834,-0.13,0.7685,-0.2875,-0.482,-0.2905,0.1745,0.0125,0.039,-0.0205,0.0125,0.2195,-0.214,0.009
-0.7125,-0.8425,-0.1305,0.7775,-0.291,-0.4865,-0.2985,0.1735,0.0075,0.039,-0.021,0.009,0.2185,-0.215,0.008
-0.7085,-0.844,-0.1355,0.776,-0.2865,-0.49,-0.291,0.174,0.01,0.04,-0.0195,0.009,0.2175,-0.2075,0.0055
-0.712,-0.8495,-0.137,0.7805,-0.288,-0.4935,-0.295,0.175,0.0135,0.038,-0.022,0.0065,0.2175,-0.207,0.0025
-0.719,-0.8555,-0.1365,0.787,-0.2915,-0.496,-0.295,0.175,0.0105,0.0365,-0.0255,0.0025,0.217,-0.205,0.001
-0.7085,-0.844,-0.136,0.776,-0.2865,-0.49,-0.296,0.1715,0.012,0.0345,-0.0255,0.004,0.2175,-0.196,0.001
-0.6985,-0.829,-0.1305,0.7635,-0.284,-0.4795,-0.2975,0.1775,0.0155,0.039,-0.0225,0.0095,0.219,-0.189,0.003
-0.6945,-0.8165,-0.1225,0.7555,-0.2865,-0.4695,-0.29,0.1825,0.0165,0.044,-0.018,0.013,0.2185,-0.183,0.002
-0.6995,-0.8315,-0.132,0.7655,-0.284,-0.482,-0.29,0.1865,0.03,0.043,-0.0195,0.012,0.2205,-0.183,-0.0025
-0.7095,-0.8545,-0.1445,0.7815,-0.2825,-0.4995,-0.2895,0.194,0.0375,0.0455,-0.0205,0.0125,0.219,-0.185,-0.005
-0.7065,-0.845,-0.1385,0.7755,-0.2845,-0.4915,-0.29,0.1945,0.033,0.0485,-0.0185,0.0135,0.2165,-0.186,-0.0055
-0.703,-0.832,-0.129,0.7675,-0.2875,-0.4805,-0.291,0.1925,0.037,0.0485,-0.019,0.014,0.214,-0.187,-0.0065
-0.702,-0.8275,-0.1255,0.7645,-0.2885,-0.4765,-0.2885,0.197,0.041,0.052,-0.0165,0.018,0.214,-0.189,-0.0075
-0.688,-0.818,-0.13,0.753,-0.279,-0.474,-0.279,0.204,0.0485,0.0585,-0.0095,0.0225,0.217,-0.199,-0.0055
-0.7025,-0.832,-0.1295,0.767,-0.2865,-0.481,-0.2885,0.1965,0.0435,0.051,-0.014,0.018,0.2205,-0.204,-0.004
-0.71,-0.839,-0.129,0.7745,-0.291,-0.484,-0.3015,0.196,0.0445,0.047,-0.0165,0.016,0.2195,-0.2025,-0.0075
-0.6955,-0.818,-0.123,0.7565,-0.2865,-0.4705,-0.2795,0.2055,0.056,0.0565,-0.008,0.022,0.222,-0.187,-0.0135
-0.704,-0.822,-0.118,0.763,-0.2935,-0.47,-0.281,0.2015,0.0495,0.053,-0.0125,0.0175,0.2225,-0.18,-0.011
-0.707,-0.828,-0.121,0.767,-0.293,-0.4745,-0.2895,0.197,0.0445,0.051,-0.0165,0.0145,0.2185,-0.1845,-0.009
-0.7175,-0.841,-0.124,0.779,-0.297,-0.4825,-0.2885,0.195,0.044,0.051,-0.0165,0.0155,0.225,-0.18,-0.0125
-0.7045,-0.832,-0.1275,0.768,-0.289,-0.4795,-0.282,0.2035,0.052,0.0575,-0.0095,0.0235,0.225,-0.1765,-0.015
-0.688,-0.8155,-0.128,0.7515,-0.28,-0.4715,-0.2765,0.2135,0.06,0.0635,-0.003,0.03,0.227,-0.1765,-0.016
-0.687,-0.8165,-0.1295,0.7515,-0.279,-0.473,-0.2835,0.213,0.061,0.065,-0.001,0.0315,0.2345,-0.1765,-0.017
-0.661,-0.7845,-0.1235,0.7225,-0.269,-0.454,-0.271,0.222,0.065,0.0765,0.0085,0.0395,0.23,-0.172,-0.02
-0.6545,-0.7715,-0.1165,0.7125,-0.2695,-0.444,-0.265,0.229,0.0725,0.0795,0.012,0.042,0.23,-0.1695,-0.021
-0.662,-0.7805,-0.119,0.721,-0.2715,-0.45,-0.2745,0.2275,0.075,0.077,0.0095,0.0395,0.2345,-0.17,-0.02
-0.6745,-0.7985,-0.124,0.736,-0.2755,-0.4615,-0.2775,0.226,0.0705,0.0755,0.005,0.036,0.2365,-0.172,-0.0205
-0.6825,-0.8095,-0.127,0.7455,-0.278,-0.4685,-0.2815,0.2195,0.0645,0.0715,0.001,0.0325,0.2395,-0.1715,-0.0205
-0.662,-0.7905,-0.1285,0.726,-0.267,-0.4595,-0.2815,0.228,0.069,0.0775,0.007,0.0395,0.241,-0.1765,-0.021
-0.6645,-0.788,-0.1235,0.726,-0.2705,-0.456,-0.277,0.2285,0.078,0.0775,0.0075,0.042,0.24,-0.177,-0.023
-0.6955,-0.808,-0.1125,0.7515,-0.292,-0.46,-0.279,0.2185,0.0745,0.0665,-0.001,0.0345,0.238,-0.1685,-0.023
-0.697,-0.8075,-0.1105,0.752,-0.2935,-0.459,-0.276,0.227,0.071,0.071,0.0015,0.0355,0.2405,-0.168,-0.022
-0.6875,-0.8015,-0.114,0.744,-0.287,-0.458,-0.278,0.2245,0.07,0.069,0.002,0.0345,0.2425,-0.166,-0.023
-0.6765,-0.802,-0.1255,0.739,-0.276,-0.464,-0.282,0.2215,0.0725,0.0635,-0.0045,0.029,0.2415,-0.168,-0.025
-0.665,-0.791,-0.1265,0.7275,-0.2695,-0.459,-0.2825,0.2265,0.0785,0.0675,-0.0035,0.031,0.2465,-0.1675,-0.0225
-0.68,-0.7915,-0.1115,0.7355,-0.2845,-0.4515,-0.2755,0.2335,0.0855,0.0715,0.001,0.036,0.2485,-0.168,-0.023
-0.6835,-0.791,-0.1075,0.737,-0.2885,-0.449,-0.265,0.237,0.088,0.076,0.006,0.041,0.248,-0.1685,-0.028
-0.667,-0.7705,-0.104,0.7185,-0.282,-0.437,-0.264,0.2465,0.095,0.0855,0.0135,0.0465,0.247,-0.1645,-0.0265
-0.662,-0.7625,-0.1005,0.712,-0.2805,-0.4315,-0.2625,0.253,0.1015,0.091,0.017,0.0475,0.247,-0.1605,-0.028
-0.675,-0.7805,-0.1055,0.7275,-0.285,-0.443,-0.2735,0.243,0.0925,0.0825,0.0105,0.0395,0.252,-0.165,-0.0275
-0.6845,-0.7885,-0.104,0.7365,-0.2905,-0.4465,-0.2785,0.2475,0.097,0.0845,0.0135,0.0395,0.252,-0.1685,-0.03
-0.6855,-0.7925,-0.1065,0.7385,-0.2895,-0.4495,-0.27,0.252,0.1005,0.089,0.0145,0.042,0.251,-0.153,-0.0335
-0.702,-0.8095,-0.1075,0.7555,-0.2975,-0.4585,-0.273,0.25,0.094,0.086,0.0095,0.0385,0.2535,-0.1545,-0.032
-0.6945,-0.7975,-0.103,0.746,-0.296,-0.45,-0.271,0.2545,0.102,0.0905,0.0135,0.0405,0.2535,-0.1535,-0.036
-0.668,-0.7745,-0.1065,0.721,-0.281,-0.4405,-0.2645,0.262,0.108,0.099,0.0215,0.047,0.257,-0.1445,-0.0375
-0.6575,-0.768,-0.1105,0.7125,-0.274,-0.4395,-0.266,0.266,0.109,0.103,0.0255,0.053,0.261,-0.143,-0.034
-0.662,-0.774,-0.112,0.7175,-0.2755,-0.443,-0.265,0.2705,0.1155,0.1075,0.0275,0.0535,0.2605,-0.144,-0.034
-0.677,-0.7875,-0.1105,0.732,-0.2835,-0.449,-0.2625,0.276,0.121,0.109,0.0295,0.054,0.261,-0.149,-0.038
-0.683,-0.793,-0.11,0.7375,-0.287,-0.451,-0.257,0.2735,0.12,0.107,0.027,0.0515,0.2575,-0.151,-0.0415
-0.6915,-0.7975,-0.1065,0.7445,-0.293,-0.452,-0.256,0.2765,0.1215,0.1085,0.027,0.0515,0.2555,-0.1545,-0.044
-0.674,-0.7745,-0.1005,0.724,-0.287,-0.4375,-0.256,0.2855,0.1275,0.116,0.034,0.0605,0.2605,-0.1555,-0.042
-0.6505,-0.744,-0.0935,0.697,-0.2785,-0.4185,-0.2495,0.294,0.1325,0.122,0.0395,0.0645,0.2595,-0.1525,-0.041
-0.653,-0.75,-0.0975,0.7015,-0.278,-0.424,-0.255,0.2855,0.1235,0.1145,0.0325,0.055,0.2565,-0.1465,-0.0425
-0.656,-0.7585,-0.1025,0.707,-0.2775,-0.43,-0.2595,0.2785,0.1175,0.1105,0.028,0.0505,0.2515,-0.1415,-0.047
-0.6595,-0.76,-0.1005,0.7095,-0.28,-0.4305,-0.2565,0.285,0.1215,0.1165,0.0345,0.054,0.2515,-0.1395,-0.0485
-0.6585,-0.7635,-0.1045,0.7105,-0.277,-0.434,-0.259,0.2865,0.118,0.12,0.037,0.0545,0.257,-0.142,-0.0455
-0.667,-0.765,-0.0975,0.7155,-0.285,-0.431,-0.265,0.2865,0.121,0.1175,0.0345,0.0515,0.259,-0.1315,-0.0495
-0.671,-0.764,-0.093,0.717,-0.289,-0.4285,-0.261,0.2855,0.1225,0.117,0.0335,0.051,0.257,-0.1255,-0.0515
-0.6605,-0.762,-0.1015,0.711,-0.28,-0.4315,-0.2615,0.29,0.1245,0.12,0.036,0.054,0.257,-0.131,-0.049
-0.654,-0.765,-0.1105,0.7095,-0.272,-0.4375,-0.2625,0.297,0.134,0.124,0.0395,0.055,0.263,-0.1345,-0.048
-0.6555,-0.7715,-0.116,0.713,-0.27,-0.4435,-0.255,0.2975,0.136,0.125,0.041,0.0565,0.263,-0.1375,-0.049
-0.6715,-0.776,-0.1045,0.7235,-0.284,-0.44,-0.2565,0.294,0.1335,0.122,0.038,0.0525,0.2595,-0.131,-0.053
-0.6815,-0.7775,-0.096,0.7295,-0.293,-0.437,-0.257,0.294,0.133,0.1185,0.0345,0.0485,0.2595,-0.1325,-0.0565
-0.6795,-0.7745,-0.095,0.727,-0.2925,-0.435,-0.251,0.298,0.1355,0.122,0.038,0.0535,0.2595,-0.1285,-0.0545
-0.6835,-0.7675,-0.0835,0.725,-0.3,-0.4255,-0.248,0.302,0.138,0.129,0.044,0.058,0.26,-0.122,-0.0525
-0.6685,-0.755,-0.0865,0.711,-0.291,-0.4205,-0.2425,0.307,0.1435,0.1315,0.0485,0.063,0.2645,-0.122,-0.0545
-0.6655,-0.756,-0.091,0.7105,-0.2875,-0.4235,-0.243,0.305,0.145,0.13,0.0435,0.061,0.2675,-0.1195,-0.0555
-0.6665,-0.7585,-0.092,0.712,-0.2875,-0.4255,-0.2445,0.3,0.1395,0.123,0.0395,0.055,0.2635,-0.114,-0.0595
-0.6465,-0.7565,-0.1105,0.701,-0.268,-0.4335,-0.2425,0.2975,0.137,0.1215,0.0385,0.0545,0.2575,-0.118,-0.0625
-0.6665,-0.7675,-0.101,0.7165,-0.283,-0.434,-0.236,0.3045,0.14,0.1285,0.042,0.0585,0.2575,-0.127,-0.0635
-0.683,-0.7615,-0.0785,0.722,-0.3025,-0.42,-0.218,0.3125,0.149,0.136,0.0495,0.0655,0.261,-0.122,-0.0655
-0.679,-0.765,-0.0855,0.7215,-0.297,-0.4255,-0.2365,0.3015,0.148,0.131,0.0455,0.062,0.2645,-0.123,-0.065
-0.672,-0.7655,-0.093,0.7185,-0.2895,-0.4295,-0.241,0.307,0.1475,0.134,0.048,0.0655,0.267,-0.13,-0.0655
-0.666,-0.761,-0.0955,0.713,-0.2855,-0.428,-0.2295,0.3175,0.147,0.143,0.0535,0.074,0.2675,-0.134,-0.0645
-0.666,-0.7585,-0.092,0.712,-0.287,-0.425,-0.2335,0.319,0.148,0.1435,0.0535,0.074,0.269,-0.138,-0.0655
-0.6715,-0.7595,-0.088,0.715,-0.2915,-0.424,-0.2295,0.313,0.1525,0.1355,0.047,0.0685,0.2685,-0.1335,-0.069
-0.6705,-0.7545,-0.084,0.7125,-0.2935,-0.4195,-0.2275,0.31,0.1535,0.1355,0.046,0.068,0.2655,-0.13,-0.068
-0.6585,-0.732,-0.0735,0.695,-0.2925,-0.4025,-0.2175,0.3225,0.161,0.1465,0.057,0.078,0.265,-0.1335,-0.069
-0.6565,-0.7235,-0.067,0.69,-0.2955,-0.395,-0.212,0.3245,0.158,0.149,0.0605,0.0795,0.266,-0.13,-0.07
-0.652,-0.7215,-0.069,0.6865,-0.292,-0.395,-0.21,0.3225,0.158,0.149,0.056,0.0765,0.264,-0.1225,-0.0685
-0.6645,-0.74,-0.075,0.702,-0.295,-0.4075,-0.2195,0.319,0.155,0.145,0.049,0.0715,0.2625,-0.116,-0.071
-0.6735,-0.753,-0.0795,0.713,-0.2975,-0.416,-0.228,0.313,0.1455,0.143,0.0445,0.067,0.263,-0.114,-0.0725
-0.6865,-0.761,-0.0745,0.7235,-0.306,-0.418,-0.2265,0.311,0.1445,0.1415,0.0425,0.064,0.2605,-0.1095,-0.0745
-0.6865,-0.7585,-0.0715,0.722,-0.3075,-0.415,-0.2265,0.3165,0.1465,0.1455,0.0455,0.065,0.2595,-0.1055,-0.076
-0.6575,-0.7495,-0.0925,0.703,-0.283,-0.421,-0.224,0.31,0.143,0.1415,0.04,0.061,0.26,-0.1115,-0.0735
-0.647,-0.7485,-0.102,0.6975,-0.2725,-0.4255,-0.2245,0.306,0.138,0.1385,0.0365,0.0565,0.261,-0.1155,-0.0715
-0.661,-0.738,-0.077,0.6995,-0.292,-0.4075,-0.217,0.3165,0.1405,0.1495,0.045,0.064,0.2585,-0.114,-0.0725
-0.6745,-0.732,-0.0575,0.703,-0.3085,-0.395,-0.211,0.3175,0.1445,0.1515,0.048,0.068,0.257,-0.1145,-0.0745
-0.673,-0.735,-0.062,0.704,-0.306,-0.3985,-0.206,0.3175,0.1455,0.153,0.0485,0.0695,0.2585,-0.12,-0.074
-0.682,-0.7425,-0.0605,0.712,-0.311,-0.4015,-0.2045,0.3185,0.1435,0.1535,0.0475,0.0685,0.255,-0.121,-0.0775
-0.6875,-0.7435,-0.0565,0.715,-0.3155,-0.4,-0.21,0.3165,0.1395,0.152,0.0485,0.067,0.253,-0.1165,-0.0785
-0.678,-0.743,-0.065,0.7105,-0.3065,-0.404,-0.214,0.3135,0.1375,0.151,0.0465,0.0655,0.2565,-0.117,-0.0765
-0.677,-0.749,-0.072,0.713,-0.303,-0.4105,-0.213,0.3135,0.1375,0.1515,0.0455,0.0645,0.2575,-0.121,-0.0775
-0.686,-0.7575,-0.0715,0.7215,-0.3075,-0.4145,-0.2075,0.307,0.1295,0.1425,0.04,0.0585,0.2515,-0.1225,-0.0785
-0.687,-0.751,-0.064,0.719,-0.312,-0.4075,-0.214,0.2975,0.119,0.136,0.033,0.052,0.252,-0.118,-0.075
-0.6745,-0.7405,-0.0665,0.7075,-0.304,-0.4035,-0.208,0.306,0.1265,0.1455,0.042,0.0605,0.255,-0.1145,-0.0755
-0.6685,-0.747,-0.0785,0.7075,-0.295,-0.413,-0.204,0.3045,0.1235,0.1465,0.0445,0.063,0.2505,-0.1155,-0.0795
-0.6785,-0.7575,-0.0785,0.7175,-0.3,-0.418,-0.2095,0.298,0.1145,0.141,0.0395,0.058,0.25,-0.1135,-0.0775
-0.682,-0.7535,-0.072,0.7175,-0.305,-0.4125,-0.2095,0.296,0.113,0.1375,0.039,0.0575,0.252,-0.112,-0.0755
-0.6855,-0.749,-0.0635,0.717,-0.311,-0.4065,-0.2135,0.2915,0.105,0.1375,0.0375,0.058,0.251,-0.114,-0.0725
-0.6915,-0.754,-0.0625,0.7225,-0.3145,-0.408,-0.206,0.2935,0.111,0.1375,0.038,0.0585,0.2515,-0.111,-0.076
-0.6965,-0.756,-0.0595,0.7265,-0.319,-0.4075,-0.1895,0.2945,0.1115,0.139,0.04,0.061,0.251,-0.107,-0.0765
-0.691,-0.7505,-0.059,0.7205,-0.3165,-0.4045,-0.1905,0.2925,0.111,0.1405,0.0415,0.0645,0.25,-0.1145,-0.076
-0.6805,-0.743,-0.0625,0.7115,-0.3095,-0.403,-0.201,0.29,0.1065,0.1375,0.0405,0.063,0.2485,-0.113,-0.076
-0.6755,-0.746,-0.07,0.7105,-0.303,-0.408,-0.205,0.2835,0.0955,0.1345,0.0365,0.0595,0.2475,-0.1085,-0.0755
-0.661,-0.746,-0.085,0.7035,-0.2885,-0.4155,-0.2065,0.2715,0.0875,0.127,0.0325,0.0595,0.248,-0.1165,-0.074
-0.684,-0.7525,-0.0685,0.718,-0.308,-0.4105,-0.202,0.275,0.087,0.1295,0.035,0.0615,0.248,-0.1085,-0.075
-0.71,-0.767,-0.057,0.738,-0.3265,-0.412,-0.2075,0.277,0.0945,0.1315,0.0365,0.0625,0.25,-0.111,-0.078
-0.7035,-0.765,-0.0615,0.734,-0.321,-0.413,-0.2025,0.2765,0.0955,0.1305,0.0355,0.063,0.2475,-0.1195,-0.0795
-0.6925,-0.757,-0.0645,0.7245,-0.3145,-0.4105,-0.1945,0.276,0.0905,0.1305,0.0345,0.062,0.241,-0.121,-0.081
-0.6815,-0.753,-0.0715,0.717,-0.305,-0.4125,-0.198,0.2675,0.0775,0.124,0.032,0.061,0.2425,-0.1215,-0.0755
-0.6865,-0.754,-0.0675,0.72,-0.31,-0.4105,-0.1985,0.2665,0.0765,0.1215,0.03,0.059,0.2445,-0.113,-0.074
-0.6895,-0.752,-0.062,0.7205,-0.314,-0.407,-0.201,0.265,0.0755,0.123,0.031,0.0585,0.2405,-0.112,-0.0745
-0.692,-0.753,-0.0605,0.722,-0.316,-0.407,-0.1995,0.2655,0.0735,0.1215,0.0315,0.0585,0.238,-0.1095,-0.0745
-0.69,-0.7595,-0.0695,0.7245,-0.3105,-0.4145,-0.203,0.258,0.066,0.1165,0.0255,0.0545,0.2365,-0.116,-0.072
-0.6925,-0.7615,-0.069,0.7265,-0.312,-0.415,-0.1975,0.254,0.06,0.1165,0.0245,0.0525,0.2325,-0.1235,-0.073
-0.7015,-0.7685,-0.067,0.735,-0.3175,-0.418,-0.1945,0.2585,0.065,0.119,0.026,0.051,0.232,-0.127,-0.075
-0.7115,-0.7755,-0.064,0.743,-0.324,-0.4195,-0.196,0.254,0.058,0.1165,0.025,0.0495,0.2305,-0.1295,-0.0705
-0.722,-0.77,-0.048,0.7455,-0.337,-0.409,-0.1965,0.2475,0.0525,0.1095,0.0205,0.0455,0.226,-0.118,-0.0715
-0.7145,-0.76,-0.045,0.737,-0.335,-0.4025,-0.1925,0.245,0.051,0.1085,0.02,0.043,0.2215,-0.112,-0.0715
-0.7135,-0.7645,-0.0505,0.7385,-0.3315,-0.4075,-0.186,0.247,0.0495,0.1115,0.0225,0.0435,0.218,-0.113,-0.071
-0.7155,-0.7755,-0.06,0.7455,-0.328,-0.418,-0.182,0.243,0.047,0.1105,0.0215,0.0425,0.217,-0.1225,-0.0705
-0.7125,-0.7785,-0.0665,0.745,-0.3235,-0.4225,-0.1765,0.2415,0.0475,0.11,0.023,0.045,0.218,-0.132,-0.07
-0.708,-0.779,-0.071,0.7435,-0.319,-0.425,-0.191,0.2415,0.0445,0.109,0.0215,0.044,0.2215,-0.1315,-0.067
-0.7045,-0.774,-0.0695,0.739,-0.3175,-0.422,-0.1915,0.234,0.0345,0.1035,0.018,0.04,0.219,-0.1255,-0.064
-0.724,-0.7815,-0.0575,0.7525,-0.3335,-0.4195,-0.1755,0.2265,0.0255,0.095,0.0125,0.0345,0.2135,-0.1135,-0.066
-0.7235,-0.7725,-0.049,0.748,-0.3375,-0.4105,-0.153,0.2245,0.022,0.0935,0.0115,0.035,0.2085,-0.1105,-0.07
-0.709,-0.7615,-0.0525,0.7345,-0.3285,-0.407,-0.1675,0.2315,0.0315,0.0975,0.0155,0.04,0.209,-0.1185,-0.0665
-0.7195,-0.7845,-0.065,0.752,-0.3275,-0.4245,-0.1855,0.228,0.0295,0.0935,0.0105,0.0365,0.2095,-0.127,-0.0645
-0.7285,-0.8025,-0.074,0.765,-0.3275,-0.438,-0.183,0.2175,0.0195,0.0865,0.0045,0.029,0.205,-0.137,-0.0685
-0.717,-0.7965,-0.0795,0.7565,-0.319,-0.438,-0.1875,0.222,0.023,0.088,0.0065,0.029,0.2045,-0.1435,-0.0655
-0.704,-0.7775,-0.0735,0.7405,-0.3155,-0.426,-0.168,0.224,0.025,0.0925,0.01,0.0355,0.2035,-0.141,-0.0635
-0.7005,-0.769,-0.068,0.7345,-0.3165,-0.4185,-0.167,0.2225,0.0265,0.094,0.0125,0.037,0.203,-0.138,-0.062
-0.698,-0.7715,-0.073,0.7345,-0.313,-0.4225,-0.1675,0.2215,0.0215,0.0915,0.012,0.0335,0.2055,-0.136,-0.063
-0.7085,-0.784,-0.076,0.746,-0.3165,-0.43,-0.1695,0.2115,0.0105,0.085,0.0075,0.029,0.2015,-0.141,-0.0625
-0.722,-0.7965,-0.0745,0.759,-0.324,-0.4355,-0.1825,0.2055,0.0015,0.083,0.005,0.0255,0.2005,-0.1505,-0.0595
-0.724,-0.801,-0.077,0.762,-0.324,-0.439,-0.1815,0.204,-0.002,0.0795,0.002,0.024,0.203,-0.1485,-0.06
-0.7255,-0.794,-0.0685,0.7595,-0.329,-0.431,-0.174,0.209,0.0035,0.085,0.005,0.028,0.202,-0.1395,-0.06
-0.734,-0.789,-0.0545,0.7615,-0.34,-0.4215,-0.1785,0.212,-0.003,0.087,0.005,0.028,0.2,-0.134,-0.06
-0.739,-0.7975,-0.058,0.768,-0.3405,-0.428,-0.1805,0.1985,-0.007,0.074,-0.0035,0.0205,0.1955,-0.14,-0.0575
-0.7415,-0.8035,-0.062,0.7725,-0.34,-0.433,-0.169,0.1975,-0.003,0.077,-0.001,0.024,0.1955,-0.145,-0.0575
-0.7355,-0.8035,-0.068,0.769,-0.334,-0.4355,-0.1715,0.202,-0.0065,0.081,0.003,0.0275,0.197,-0.139,-0.059
-0.72,-0.7925,-0.073,0.756,-0.3235,-0.4325,-0.1685,0.1985,-0.0085,0.079,0.0025,0.0265,0.196,-0.141,-0.0585
-0.7015,-0.77,-0.069,0.7355,-0.3165,-0.4195,-0.1635,0.2055,-0.003,0.0835,0.007,0.032,0.193,-0.1425,-0.0575
-0.6995,-0.7685,-0.069,0.734,-0.3155,-0.419,-0.1655,0.2035,-0.0065,0.0815,0.0055,0.0315,0.191,-0.1405,-0.0565
-0.7045,-0.7785,-0.074,0.7415,-0.3155,-0.426,-0.173,0.194,-0.0165,0.076,0.001,0.027,0.193,-0.1465,-0.054
-0.6995,-0.7745,-0.0745,0.737,-0.3125,-0.4245,-0.1765,0.1955,-0.0145,0.0775,-0.0005,0.028,0.194,-0.1435,-0.0555
-0.7135,-0.7835,-0.07,0.7485,-0.322,-0.4265,-0.175,0.192,-0.0145,0.0755,-0.004,0.0255,0.193,-0.135,-0.057
-0.7315,-0.7995,-0.068,0.7655,-0.332,-0.434,-0.18,0.193,-0.017,0.0755,-0.0045,0.025,0.19,-0.142,-0.056
-0.7485,-0.817,-0.0685,0.7825,-0.34,-0.443,-0.1825,0.188,-0.023,0.072,-0.0085,0.0215,0.1885,-0.149,-0.0565
-0.7445,-0.8145,-0.07,0.779,-0.3375,-0.442,-0.178,0.1885,-0.022,0.072,-0.0095,0.019,0.1885,-0.147,-0.058
-0.7295,-0.803,-0.0735,0.766,-0.328,-0.438,-0.1765,0.188,-0.0185,0.073,-0.008,0.0205,0.1895,-0.152,-0.058
-0.7215,-0.806,-0.084,0.7635,-0.3185,-0.445,-0.1865,0.179,-0.021,0.063,-0.013,0.015,0.1915,-0.1535,-0.051
-0.723,-0.803,-0.08,0.763,-0.322,-0.4415,-0.1945,0.1825,-0.0305,0.063,-0.016,0.013,0.1905,-0.1495,-0.0485
-0.738,-0.8045,-0.067,0.771,-0.3355,-0.436,-0.19,0.178,-0.036,0.062,-0.0195,0.0115,0.185,-0.1535,-0.051
-0.7305,-0.7975,-0.0665,0.764,-0.332,-0.432,-0.1775,0.178,-0.033,0.0625,-0.0165,0.0135,0.181,-0.1475,-0.053
-0.7215,-0.792,-0.0705,0.7565,-0.326,-0.431,-0.1765,0.179,-0.035,0.064,-0.014,0.014,0.183,-0.1475,-0.053
-0.7325,-0.799,-0.0665,0.7655,-0.3335,-0.4325,-0.1775,0.181,-0.03,0.0655,-0.0115,0.016,0.187,-0.153,-0.052
-0.7505,-0.8055,-0.055,0.778,-0.3485,-0.43,-0.179,0.18,-0.0305,0.0665,-0.0125,0.016,0.1885,-0.1455,-0.0525
-0.7485,-0.817,-0.0685,0.7825,-0.3405,-0.4425,-0.188,0.167,-0.0465,0.057,-0.021,0.0085,0.186,-0.1465,-0.049
-0.74,-0.8155,-0.0755,0.7775,-0.3325,-0.4455,-0.185,0.1685,-0.051,0.057,-0.0205,0.008,0.184,-0.1545,-0.0485
-0.7385,-0.8055,-0.067,0.772,-0.336,-0.4365,-0.1825,0.174,-0.044,0.061,-0.0155,0.013,0.1865,-0.153,-0.0485
-0.7265,-0.79,-0.0635,0.758,-0.332,-0.4265,-0.172,0.1785,-0.036,0.0665,-0.007,0.0215,0.189,-0.1445,-0.048
-0.726,-0.785,-0.059,0.755,-0.3335,-0.422,-0.166,0.186,-0.031,0.0735,-0.001,0.026,0.186,-0.147,-0.0505
-0.732,-0.7915,-0.0595,0.7615,-0.3365,-0.4255,-0.17,0.1785,-0.0415,0.0685,-0.0045,0.0225,0.1825,-0.1495,-0.0505
-0.7335,-0.7905,-0.057,0.762,-0.3385,-0.424,-0.1655,0.179,-0.038,0.068,-0.0065,0.022,0.1825,-0.142,-0.05
-0.73,-0.7915,-0.061,0.7605,-0.335,-0.426,-0.1745,0.181,-0.036,0.068,-0.007,0.0205,0.1885,-0.144,-0.045
-0.707,-0.7825,-0.0755,0.7445,-0.316,-0.429,-0.1825,0.174,-0.0435,0.065,-0.008,0.0175,0.1925,-0.146,-0.0465
-0.707,-0.788,-0.081,0.747,-0.313,-0.4345,-0.172,0.1745,-0.043,0.064,-0.011,0.0145,0.19,-0.1465,-0.0535
-0.7425,-0.8075,-0.065,0.7745,-0.339,-0.436,-0.1745,0.173,-0.049,0.0595,-0.013,0.0125,0.1855,-0.152,-0.051
-0.7525,-0.804,-0.0515,0.778,-0.3505,-0.428,-0.1765,0.176,-0.044,0.063,-0.0095,0.0165,0.184,-0.155,-0.047
-0.7405,-0.799,-0.0585,0.7695,-0.3415,-0.4285,-0.171,0.177,-0.044,0.065,-0.0105,0.0165,0.1845,-0.154,-0.046
-0.7395,-0.807,-0.0675,0.773,-0.3365,-0.4375,-0.1765,0.172,-0.052,0.059,-0.0155,0.0125,0.182,-0.1545,-0.0455
-0.7385,-0.8025,-0.0635,0.77,-0.338,-0.433,-0.1765,0.1695,-0.0535,0.0565,-0.017,0.0095,0.179,-0.1505,-0.0475
-0.7365,-0.796,-0.059,0.766,-0.339,-0.4275,-0.177,0.1725,-0.0505,0.06,-0.014,0.0115,0.1795,-0.143,-0.0495
-0.731,-0.7905,-0.0595,0.7605,-0.336,-0.425,-0.17,0.1785,-0.0425,0.0655,-0.008,0.017,0.1795,-0.147,-0.05
-0.7345,-0.7995,-0.065,0.7665,-0.335,-0.4325,-0.175,0.174,-0.046,0.064,-0.0105,0.0135,0.1775,-0.153,-0.0485
-0.739,-0.811,-0.072,0.775,-0.334,-0.4415,-0.176,0.168,-0.0515,0.061,-0.0155,0.0075,0.1775,-0.157,-0.048
-0.7315,-0.803,-0.0715,0.767,-0.33,-0.4375,-0.168,0.1705,-0.0475,0.0635,-0.0105,0.012,0.1805,-0.155,-0.0495
-0.7375,-0.807,-0.0695,0.772,-0.334,-0.4385,-0.177,0.1735,-0.042,0.0675,-0.005,0.0165,0.1805,-0.1605,-0.048
-0.7525,-0.815,-0.0625,0.7835,-0.345,-0.4385,-0.1695,0.1665,-0.051,0.058,-0.0135,0.0075,0.175,-0.1525,-0.051
-0.7475,-0.812,-0.0645,0.7795,-0.3415,-0.4385,-0.1655,0.1645,-0.052,0.0555,-0.018,0.0045,0.172,-0.1425,-0.0545
-0.724,-0.804,-0.08,0.764,-0.322,-0.4425,-0.1715,0.163,-0.0535,0.055,-0.0195,0.003,0.1745,-0.155,-0.0495
-0.7195,-0.8085,-0.089,0.764,-0.3155,-0.449,-0.177,0.157,-0.063,0.048,-0.0245,-0.0035,0.176,-0.154,-0.0475
-0.7275,-0.809,-0.0815,0.768,-0.323,-0.4455,-0.175,0.1665,-0.049,0.0535,-0.0185,0.001,0.175,-0.148,-0.0505
-0.7285,-0.812,-0.084,0.77,-0.3225,-0.448,-0.174,0.167,-0.0485,0.0535,-0.018,0.0015,0.175,-0.148,-0.0475
-0.728,-0.814,-0.086,0.7705,-0.321,-0.45,-0.177,0.1655,-0.0505,0.0545,-0.0185,0.0015,0.176,-0.153,-0.0485
-0.738,-0.8,-0.062,0.7685,-0.338,-0.431,-0.1655,0.1725,-0.0405,0.0605,-0.012,0.009,0.1745,-0.153,-0.051
-0.761,-0.8025,-0.042,0.7815,-0.36,-0.4225,-0.1515,0.1795,-0.036,0.0645,-0.0085,0.014,0.1715,-0.158,-0.051
-0.7575,-0.807,-0.0495,0.782,-0.3545,-0.4285,-0.158,0.1785,-0.039,0.063,-0.009,0.0125,0.1705,-0.1615,-0.0525
-0.7415,-0.8045,-0.063,0.773,-0.3395,-0.434,-0.1675,0.166,-0.0425,0.055,-0.014,0.0075,0.17,-0.1505,-0.0515
-0.7325,-0.793,-0.06,0.7625,-0.3365,-0.4265,-0.1595,0.1725,-0.0395,0.0595,-0.0135,0.009,0.167,-0.15,-0.051
-0.7265,-0.7845,-0.058,0.755,-0.3345,-0.421,-0.1595,0.1825,-0.037,0.0655,-0.009,0.013,0.17,-0.1505,-0.0485
-0.7325,-0.795,-0.0625,0.7635,-0.335,-0.429,-0.159,0.1785,-0.0385,0.0635,-0.01,0.0105,0.1695,-0.1535,-0.0505
-0.737,-0.803,-0.0655,0.7695,-0.3355,-0.434,-0.164,0.179,-0.038,0.062,-0.015,0.0065,0.1675,-0.158,-0.0495
-0.733,-0.8045,-0.0715,0.7685,-0.331,-0.438,-0.173,0.176,-0.0395,0.06,-0.0155,0.0065,0.1725,-0.1585,-0.043
-0.7285,-0.7985,-0.07,0.763,-0.3295,-0.434,-0.169,0.1715,-0.043,0.0615,-0.012,0.009,0.1745,-0.1605,-0.043
-0.737,-0.803,-0.066,0.7695,-0.3355,-0.4345,-0.1685,0.182,-0.037,0.067,-0.01,0.0095,0.175,-0.163,-0.0445
-0.741,-0.8105,-0.0695,0.7755,-0.336,-0.44,-0.1705,0.1745,-0.041,0.062,-0.0125,0.0065,0.176,-0.167,-0.0455
-0.743,-0.7995,-0.057,0.771,-0.3435,-0.428,-0.172,0.161,-0.042,0.054,-0.0185,0.0005,0.173,-0.1545,-0.0485
-0.7455,-0.7965,-0.051,0.771,-0.3475,-0.424,-0.169,0.175,-0.0405,0.0595,-0.0165,0.0005,0.1695,-0.143,-0.0505
-0.7485,-0.8125,-0.0645,0.7805,-0.342,-0.4385,-0.1665,0.1765,-0.0435,0.059,-0.0165,0.003,0.1705,-0.1535,-0.0475
-0.758,-0.8265,-0.0685,0.792,-0.345,-0.4475,-0.1685,0.169,-0.0425,0.053,-0.0205,-0.001,0.1705,-0.163,-0.047
-0.755,-0.82,-0.065,0.787,-0.345,-0.4425,-0.17,0.172,-0.0425,0.0555,-0.0205,0.0005,0.172,-0.159,-0.0475
-0.7415,-0.8065,-0.0645,0.7735,-0.339,-0.4355,-0.165,0.1735,-0.0385,0.057,-0.019,0.005,0.1705,-0.149,-0.0475
-0.736,-0.806,-0.07,0.7705,-0.333,-0.438,-0.1635,0.1755,-0.037,0.058,-0.0185,0.005,0.171,-0.156,-0.048
-0.745,-0.812,-0.0675,0.778,-0.339,-0.44,-0.1665,0.1735,-0.0415,0.057,-0.021,0.0035,0.1725,-0.1635,-0.0485
-0.768,-0.8265,-0.0585,0.797,-0.355,-0.4425,-0.1695,0.1705,-0.0415,0.053,-0.026,-0.002,0.17,-0.1565,-0.0515
-0.7905,-0.8425,-0.052,0.816,-0.3695,-0.4475,-0.169,0.168,-0.0485,0.0495,-0.03,-0.0055,0.1675,-0.1555,-0.0515
-0.782,-0.83,-0.0475,0.806,-0.3675,-0.4385,-0.1605,0.173,-0.046,0.0555,-0.0255,0.0,0.1655,-0.1565,-0.0545
-0.775,-0.828,-0.053,0.8015,-0.361,-0.4405,-0.159,0.1775,-0.034,0.0585,-0.023,0.0015,0.1675,-0.158,-0.055
-0.7765,-0.8305,-0.054,0.803,-0.3615,-0.442,-0.1555,0.1755,-0.0435,0.0575,-0.024,0.001,0.17,-0.1505,-0.057
-0.7445,-0.798,-0.0535,0.771,-0.3455,-0.4255,-0.1525,0.1845,-0.0335,0.067,-0.015,0.0105,0.1685,-0.1555,-0.058
-0.7225,-0.7735,-0.0515,0.748,-0.3355,-0.4125,-0.15,0.192,-0.026,0.0735,-0.0085,0.0145,0.1645,-0.1635,-0.057
-0.7335,-0.7845,-0.0515,0.759,-0.3415,-0.418,-0.1545,0.1885,-0.0345,0.0695,-0.0135,0.008,0.171,-0.1585,-0.0565
-0.7365,-0.7885,-0.052,0.762,-0.3425,-0.42,-0.1505,0.189,-0.0275,0.069,-0.013,0.008,0.1755,-0.1515,-0.061
-0.736,-0.7855,-0.0495,0.7605,-0.3435,-0.4175,-0.1435,0.1895,-0.038,0.07,-0.014,0.0055,0.1695,-0.145,-0.0635
-0.745,-0.8055,-0.0605,0.775,-0.3425,-0.433,-0.142,0.1825,-0.0425,0.062,-0.021,-0.001,0.168,-0.155,-0.0585
-0.7415,-0.8045,-0.063,0.7725,-0.3395,-0.434,-0.1505,0.1825,-0.033,0.0615,-0.0185,0.0015,0.171,-0.163,-0.058
-0.7305,-0.7885,-0.058,0.7595,-0.3365,-0.4235,-0.168,0.1865,-0.0325,0.0665,-0.0155,-0.0005,0.1755,-0.1605,-0.0575
-0.7415,-0.7965,-0.055,0.7685,-0.343,-0.426,-0.1615,0.1885,-0.032,0.0635,-0.017,-0.003,0.172,-0.1645,-0.06
-0.754,-0.801,-0.047,0.7775,-0.354,-0.424,-0.159,0.1895,-0.035,0.064,-0.019,-0.0045,0.168,-0.157,-0.063
-0.748,-0.7895,-0.0415,0.7685,-0.3535,-0.4155,-0.1605,0.189,-0.032,0.0665,-0.0195,-0.007,0.169,-0.149,-0.062
-0.7525,-0.7965,-0.044,0.774,-0.3545,-0.42,-0.1575,0.1875,-0.038,0.0625,-0.022,-0.0085,0.169,-0.1545,-0.061
-0.7505,-0.7895,-0.039,0.7695,-0.356,-0.414,-0.153,0.1895,-0.0385,0.0645,-0.0205,-0.008,0.165,-0.1475,-0.0635
-0.7505,-0.788,-0.037,0.769,-0.357,-0.4125,-0.1575,0.1905,-0.033,0.0645,-0.023,-0.0105,0.1625,-0.1415,-0.065
-0.763,-0.802,-0.0385,0.782,-0.3625,-0.42,-0.157,0.194,-0.0295,0.066,-0.0235,-0.0115,0.1635,-0.139,-0.067
-0.738,-0.7865,-0.049,0.762,-0.3445,-0.4175,-0.1445,0.2025,-0.017,0.075,-0.0145,0.0005,0.1665,-0.1455,-0.066
-0.731,-0.7875,-0.0565,0.759,-0.3375,-0.422,-0.1465,0.2005,-0.023,0.0725,-0.017,-0.0015,0.166,-0.153,-0.0635
-0.7365,-0.7875,-0.051,0.762,-0.343,-0.4195,-0.1415,0.2015,-0.0205,0.072,-0.017,-0.003,0.1615,-0.1515,-0.065
-0.7425,-0.795,-0.0525,0.7685,-0.3455,-0.4235,-0.142,0.197,-0.026,0.07,-0.0205,-0.003,0.1595,-0.153,-0.0645
-0.7565,-0.807,-0.0505,0.7815,-0.3535,-0.4285,-0.151,0.1895,-0.0315,0.0645,-0.0275,-0.011,0.1595,-0.1515,-0.064
-0.7445,-0.7945,-0.0505,0.7695,-0.3475,-0.4225,-0.158,0.1935,-0.027,0.0655,-0.027,-0.009,0.163,-0.1565,-0.0615
-0.739,-0.7895,-0.0505,0.764,-0.3445,-0.42,-0.156,0.1955,-0.031,0.067,-0.025,-0.0065,0.1625,-0.155,-0.063
-0.7595,-0.806,-0.0465,0.7825,-0.357,-0.426,-0.149,0.189,-0.032,0.0615,-0.028,-0.01,0.161,-0.158,-0.0645
-0.776,-0.8195,-0.0435,0.7975,-0.3665,-0.4315,-0.152,0.187,-0.035,0.059,-0.0305,-0.0115,0.1605,-0.157,-0.068
-0.7825,-0.829,-0.0465,0.8055,-0.368,-0.438,-0.1605,0.1895,-0.0335,0.0615,-0.026,-0.0105,0.1635,-0.153,-0.067
-0.7895,-0.8495,-0.06,0.8195,-0.365,-0.4545,-0.1635,0.1825,-0.0415,0.055,-0.031,-0.0145,0.1635,-0.169,-0.062
-0.7485,-0.8165,-0.068,0.782,-0.3405,-0.4425,-0.1435,0.1945,-0.0295,0.0655,-0.0225,-0.005,0.163,-0.166,-0.0645
-0.7185,-0.7835,-0.065,0.751,-0.327,-0.4245,-0.1435,0.202,-0.021,0.073,-0.0145,0.0025,0.162,-0.1515,-0.065
-0.7475,-0.807,-0.0595,0.777,-0.3445,-0.433,-0.166,0.192,-0.0325,0.0635,-0.022,-0.006,0.1615,-0.1545,-0.063
-0.763,-0.8155,-0.0525,0.789,-0.3555,-0.434,-0.151,0.2005,-0.0215,0.0725,-0.0155,0.0005,0.1655,-0.1635,-0.0665
-0.7655,-0.8095,-0.044,0.7875,-0.361,-0.427,-0.14,0.194,-0.03,0.071,-0.017,-0.002,0.1605,-0.165,-0.0685
-0.7525,-0.799,-0.046,0.7755,-0.3535,-0.4225,-0.152,0.1925,-0.034,0.0655,-0.021,-0.007,0.1565,-0.16,-0.0665
-0.734,-0.7795,-0.0455,0.7565,-0.3445,-0.4125,-0.157,0.1985,-0.0275,0.0725,-0.018,-0.0015,0.1595,-0.1565,-0.068
-0.7425,-0.789,-0.0465,0.7655,-0.348,-0.418,-0.16,0.1915,-0.0365,0.068,-0.0235,-0.0045,0.161,-0.155,-0.0655
-0.764,-0.8135,-0.0495,0.7885,-0.3575,-0.4315,-0.162,0.187,-0.0395,0.0625,-0.028,-0.0085,0.1595,-0.164,-0.0645
-0.7585,-0.821,-0.0625,0.7895,-0.348,-0.4415,-0.17,0.178,-0.0485,0.057,-0.033,-0.0125,0.1595,-0.163,-0.0635
-0.7475,-0.8145,-0.067,0.7805,-0.3405,-0.4405,-0.163,0.1865,-0.0405,0.0635,-0.0295,-0.008,0.1575,-0.148,-0.067
-0.754,-0.8085,-0.0545,0.781,-0.35,-0.4315,-0.159,0.1915,-0.031,0.0665,-0.027,-0.006,0.156,-0.152,-0.069
-0.7565,-0.816,-0.06,0.786,-0.3485,-0.438,-0.1655,0.184,-0.0365,0.06,-0.0315,-0.0115,0.1595,-0.1565,-0.064
-0.762,-0.8225,-0.0605,0.792,-0.351,-0.4415,-0.1625,0.1815,-0.038,0.0605,-0.031,-0.0095,0.1625,-0.1565,-0.064
-0.7495,-0.8215,-0.072,0.7855,-0.339,-0.4465,-0.1635,0.175,-0.0445,0.054,-0.0375,-0.014,0.1615,-0.1615,-0.0645
-0.75,-0.822,-0.072,0.786,-0.3395,-0.447,-0.165,0.17,-0.0495,0.0475,-0.046,-0.023,0.155,-0.1545,-0.0685
-0.7625,-0.815,-0.0525,0.7885,-0.3555,-0.434,-0.1685,0.1745,-0.0425,0.0555,-0.0385,-0.015,0.154,-0.155,-0.067
-0.7625,-0.8125,-0.05,0.7875,-0.3565,-0.431,-0.161,0.1805,-0.032,0.063,-0.0275,-0.004,0.154,-0.16,-0.068
-0.7465,-0.8015,-0.0545,0.7735,-0.346,-0.428,-0.15,0.1875,-0.0325,0.0675,-0.0255,-0.0015,0.1575,-0.1625,-0.067
-0.739,-0.7905,-0.051,0.7645,-0.3445,-0.4205,-0.152,0.1915,-0.034,0.0705,-0.023,0.0005,0.1605,-0.1685,-0.062
-0.7495,-0.789,-0.04,0.769,-0.355,-0.4145,-0.15,0.189,-0.0305,0.071,-0.0215,0.0025,0.1565,-0.1705,-0.062
-0.743,-0.7815,-0.0385,0.762,-0.3525,-0.41,-0.1505,0.1915,-0.0295,0.072,-0.018,0.0045,0.159,-0.159,-0.062
-0.7445,-0.7895,-0.045,0.7665,-0.35,-0.417,-0.158,0.1835,-0.0405,0.066,-0.0235,-0.001,0.16,-0.1535,-0.064
-0.748,-0.7925,-0.045,0.77,-0.3515,-0.4185,-0.1535,0.181,-0.042,0.0645,-0.0265,-0.0035,0.16,-0.152,-0.062
-0.7655,-0.799,-0.034,0.782,-0.366,-0.4165,-0.1555,0.18,-0.045,0.061,-0.0275,-0.0055,0.159,-0.153,-0.061
-0.765,-0.8015,-0.036,0.783,-0.3645,-0.419,-0.1605,0.176,-0.05,0.0585,-0.0315,-0.008,0.157,-0.1555,-0.06
-0.7465,-0.7885,-0.042,0.767,-0.3525,-0.4155,-0.157,0.187,-0.0385,0.067,-0.024,0.0005,0.158,-0.144,-0.0605
-0.7575,-0.8075,-0.0505,0.7825,-0.354,-0.429,-0.163,0.1805,-0.0515,0.061,-0.029,-0.005,0.1575,-0.145,-0.0565
-0.7775,-0.832,-0.054,0.8045,-0.362,-0.443,-0.173,0.164,-0.059,0.0495,-0.039,-0.016,0.158,-0.148,-0.0545
-0.79,-0.8365,-0.0465,0.813,-0.372,-0.4415,-0.168,0.165,-0.0565,0.0495,-0.037,-0.0145,0.1605,-0.147,-0.055
-0.7805,-0.8305,-0.05,0.805,-0.3655,-0.44,-0.1665,0.1675,-0.0585,0.0505,-0.035,-0.0115,0.158,-0.154,-0.054
-0.7655,-0.814,-0.0485,0.79,-0.359,-0.4315,-0.1675,0.1685,-0.0515,0.0525,-0.032,-0.007,0.1575,-0.156,-0.055
