i,ii,iii,avr,avl,avf,v1,v2,v3,v4,v5,v6,vx,vy,vz
-0.0325,-0.204,-0.1715,0.118,0.0695,-0.188,0.112,0.046,0.173,0.185,0.172,0.248,0.0915,-0.144,0.0585
-0.0295,-0.207,-0.1775,0.118,0.0745,-0.1925,0.1155,0.049,0.1745,0.186,0.1715,0.2485,0.0935,-0.1485,0.0575
-0.0285,-0.204,-0.1755,0.1165,0.074,-0.1905,0.117,0.051,0.1765,0.188,0.1735,0.2485,0.096,-0.1455,0.054
-0.0255,-0.1985,-0.173,0.112,0.074,-0.1865,0.122,0.0555,0.182,0.1935,0.1785,0.2525,0.0975,-0.145,0.0495
-0.021,-0.19,-0.169,0.1055,0.074,-0.18,0.1245,0.059,0.1865,0.199,0.185,0.2585,0.1015,-0.143,0.0445
-0.0265,-0.186,-0.159,0.1065,0.0665,-0.173,0.1285,0.063,0.1915,0.2045,0.1905,0.2625,0.103,-0.1405,0.04
-0.03,-0.182,-0.152,0.106,0.061,-0.167,0.132,0.0655,0.196,0.2085,0.1945,0.2665,0.1045,-0.132,0.037
-0.0295,-0.1715,-0.142,0.1005,0.0565,-0.157,0.1355,0.067,0.1985,0.2115,0.196,0.269,0.1045,-0.12,0.033
-0.0355,-0.167,-0.1315,0.1015,0.048,-0.1495,0.1405,0.0695,0.202,0.2145,0.2,0.2715,0.103,-0.1145,0.0275
-0.04,-0.163,-0.123,0.1015,0.042,-0.143,0.1465,0.071,0.206,0.217,0.202,0.273,0.1005,-0.109,0.0225
-0.0435,-0.1555,-0.1115,0.0995,0.034,-0.1335,0.154,0.0755,0.209,0.2215,0.2065,0.2735,0.095,-0.1055,0.0185
-0.0455,-0.1465,-0.101,0.096,0.028,-0.124,0.1595,0.077,0.2115,0.2245,0.212,0.279,0.096,-0.099,0.0155
-0.052,-0.148,-0.0965,0.1,0.0225,-0.1225,0.163,0.077,0.2125,0.2235,0.2095,0.279,0.0925,-0.096,0.0135
-0.0655,-0.1615,-0.0965,0.1135,0.0155,-0.129,0.163,0.074,0.208,0.218,0.204,0.272,0.086,-0.099,0.013
-0.062,-0.159,-0.097,0.1105,0.018,-0.1285,0.1645,0.0745,0.2075,0.2175,0.205,0.2715,0.0845,-0.0985,0.0115
-0.058,-0.1545,-0.0965,0.1065,0.0195,-0.126,0.168,0.0765,0.2065,0.2155,0.2035,0.2695,0.081,-0.1,0.011
-0.063,-0.1635,-0.1,0.1135,0.0185,-0.132,0.1675,0.072,0.2005,0.209,0.195,0.26,0.0755,-0.105,0.012
-0.0685,-0.1705,-0.102,0.1195,0.017,-0.1365,0.1675,0.069,0.1965,0.204,0.1895,0.2525,0.0705,-0.1105,0.012
-0.072,-0.1725,-0.101,0.122,0.015,-0.137,0.1685,0.071,0.1965,0.204,0.1895,0.2505,0.0695,-0.114,0.01
-0.0725,-0.1775,-0.105,0.125,0.0165,-0.1415,0.1725,0.0755,0.202,0.207,0.189,0.246,0.065,-0.1215,0.005
-0.076,-0.185,-0.109,0.1305,0.017,-0.1475,0.1755,0.078,0.203,0.2065,0.1885,0.248,0.065,-0.13,0.0045
-0.077,-0.19,-0.113,0.1335,0.018,-0.152,0.176,0.0785,0.2035,0.208,0.194,0.2535,0.069,-0.1325,0.004
-0.0775,-0.191,-0.1135,0.1345,0.0185,-0.1525,0.175,0.0775,0.203,0.207,0.19,0.249,0.068,-0.1305,0.004
-0.079,-0.193,-0.114,0.136,0.018,-0.154,0.1725,0.074,0.2,0.203,0.185,0.245,0.067,-0.127,0.006
-0.0785,-0.195,-0.117,0.137,0.0195,-0.156,0.1705,0.072,0.1985,0.201,0.184,0.2415,0.065,-0.1315,0.0075
-0.077,-0.1965,-0.12,0.137,0.022,-0.1585,0.17,0.0695,0.195,0.197,0.1815,0.24,0.0645,-0.1385,0.01
-0.078,-0.198,-0.1205,0.138,0.0215,-0.1595,0.1685,0.067,0.192,0.1945,0.1785,0.239,0.063,-0.1375,0.014
-0.0775,-0.198,-0.121,0.1375,0.022,-0.16,0.1665,0.062,0.1865,0.1895,0.1735,0.235,0.0615,-0.138,0.018
-0.0795,-0.2035,-0.124,0.1415,0.0225,-0.164,0.1635,0.0565,0.18,0.1835,0.168,0.2315,0.0595,-0.1415,0.0225
-0.08,-0.204,-0.124,0.142,0.022,-0.164,0.1605,0.052,0.176,0.179,0.1625,0.2285,0.057,-0.1395,0.0265
-0.0775,-0.2015,-0.124,0.1395,0.0235,-0.163,0.1615,0.0495,0.1725,0.1775,0.1605,0.2275,0.055,-0.1425,0.027
-0.0825,-0.208,-0.125,0.1455,0.0215,-0.1665,0.1585,0.045,0.1685,0.172,0.1555,0.2245,0.054,-0.148,0.03
-0.086,-0.2115,-0.126,0.1485,0.02,-0.169,0.159,0.0435,0.1675,0.1695,0.151,0.223,0.049,-0.149,0.032
-0.0875,-0.213,-0.1255,0.15,0.019,-0.169,0.161,0.043,0.166,0.169,0.151,0.22,0.044,-0.1495,0.031
-0.0875,-0.217,-0.1295,0.1525,0.0215,-0.1735,0.1575,0.0385,0.161,0.165,0.149,0.2165,0.045,-0.1485,0.032
-0.082,-0.2175,-0.1355,0.15,0.027,-0.177,0.154,0.0345,0.156,0.1595,0.143,0.2105,0.042,-0.146,0.034
-0.078,-0.217,-0.1395,0.1475,0.031,-0.1785,0.152,0.0305,0.1505,0.1535,0.137,0.207,0.04,-0.149,0.038
-0.079,-0.22,-0.141,0.1495,0.0315,-0.1805,0.1505,0.0295,0.1475,0.153,0.1385,0.2075,0.041,-0.1525,0.0395
-0.079,-0.219,-0.14,0.149,0.0305,-0.1795,0.1495,0.029,0.148,0.1535,0.1375,0.205,0.0395,-0.153,0.0395
-0.079,-0.2185,-0.14,0.1485,0.031,-0.1795,0.1485,0.0265,0.146,0.151,0.134,0.2025,0.0395,-0.1545,0.0385
-0.086,-0.2245,-0.139,0.1555,0.027,-0.182,0.144,0.0225,0.1405,0.146,0.13,0.196,0.0365,-0.154,0.0385
-0.0845,-0.2225,-0.1375,0.1535,0.0265,-0.1805,0.1445,0.0235,0.144,0.148,0.1305,0.1995,0.0385,-0.1545,0.039
-0.0775,-0.216,-0.1385,0.147,0.0305,-0.1775,0.147,0.0265,0.147,0.151,0.134,0.2055,0.041,-0.155,0.0385
-0.0775,-0.217,-0.14,0.147,0.0315,-0.1785,0.1445,0.026,0.145,0.1495,0.1345,0.2025,0.0395,-0.1525,0.0375
-0.079,-0.217,-0.138,0.148,0.03,-0.1775,0.144,0.0245,0.145,0.149,0.1335,0.2005,0.039,-0.152,0.037
-0.083,-0.222,-0.1385,0.1525,0.028,-0.1805,0.1455,0.025,0.1455,0.1495,0.1335,0.201,0.04,-0.158,0.037
-0.0855,-0.225,-0.139,0.155,0.027,-0.1825,0.1465,0.026,0.1465,0.1515,0.135,0.202,0.0395,-0.1585,0.037
-0.085,-0.222,-0.137,0.1535,0.026,-0.1795,0.1465,0.0255,0.1485,0.1535,0.137,0.2035,0.041,-0.1565,0.0375
-0.0875,-0.2225,-0.135,0.155,0.024,-0.179,0.15,0.028,0.1495,0.155,0.141,0.2065,0.0405,-0.1595,0.0385
-0.0865,-0.221,-0.134,0.154,0.024,-0.178,0.151,0.028,0.15,0.1545,0.141,0.2065,0.0395,-0.1585,0.038
-0.084,-0.221,-0.1375,0.1525,0.027,-0.1795,0.149,0.0245,0.1485,0.153,0.139,0.2045,0.039,-0.155,0.0385
-0.0805,-0.2195,-0.139,0.15,0.0295,-0.1795,0.149,0.025,0.1475,0.1525,0.1385,0.2055,0.0385,-0.1575,0.0385
-0.083,-0.2225,-0.139,0.1525,0.0285,-0.181,0.1515,0.027,0.1495,0.154,0.1405,0.208,0.0395,-0.16,0.0385
-0.089,-0.226,-0.1375,0.1575,0.0245,-0.182,0.154,0.0295,0.1515,0.1575,0.1425,0.2095,0.0375,-0.157,0.037
-0.09,-0.226,-0.136,0.1575,0.023,-0.181,0.1545,0.0315,0.152,0.158,0.143,0.2085,0.0365,-0.155,0.036
-0.0915,-0.2265,-0.135,0.159,0.022,-0.181,0.154,0.0315,0.152,0.158,0.143,0.2085,0.0375,-0.156,0.037
-0.0885,-0.222,-0.1335,0.155,0.023,-0.178,0.152,0.0305,0.1515,0.157,0.142,0.2085,0.0385,-0.154,0.0355
-0.0895,-0.223,-0.1335,0.156,0.0225,-0.1785,0.1495,0.0285,0.1495,0.156,0.141,0.2065,0.039,-0.1515,0.035
-0.0905,-0.223,-0.1325,0.1565,0.021,-0.1775,0.151,0.031,0.152,0.158,0.143,0.2085,0.04,-0.1515,0.0355
-0.0895,-0.22,-0.131,0.155,0.021,-0.176,0.152,0.0325,0.152,0.1565,0.143,0.209,0.041,-0.149,0.0355
-0.09,-0.224,-0.134,0.157,0.0225,-0.1795,0.1505,0.032,0.1515,0.157,0.1415,0.209,0.041,-0.151,0.0365
-0.0885,-0.2215,-0.1335,0.155,0.0225,-0.1775,0.151,0.0325,0.1515,0.1575,0.142,0.2115,0.0415,-0.15,0.037
-0.089,-0.2165,-0.128,0.1525,0.02,-0.1725,0.151,0.033,0.1515,0.156,0.143,0.2135,0.044,-0.1455,0.037
-0.0895,-0.217,-0.128,0.1535,0.0195,-0.173,0.151,0.032,0.151,0.1565,0.1425,0.213,0.0445,-0.1455,0.0355
-0.0895,-0.2205,-0.1315,0.155,0.021,-0.176,0.15,0.0305,0.147,0.1545,0.141,0.2125,0.045,-0.1435,0.0365
-0.0915,-0.2225,-0.131,0.157,0.02,-0.177,0.1505,0.032,0.1515,0.158,0.1425,0.2135,0.046,-0.1435,0.036
-0.095,-0.2245,-0.1295,0.1595,0.0175,-0.177,0.151,0.034,0.1535,0.1595,0.1435,0.212,0.045,-0.1445,0.0355
-0.096,-0.23,-0.134,0.163,0.0195,-0.182,0.151,0.033,0.154,0.1595,0.1445,0.213,0.0455,-0.151,0.0365
-0.0965,-0.238,-0.141,0.167,0.0225,-0.1895,0.1485,0.029,0.15,0.1575,0.1425,0.208,0.044,-0.155,0.036
-0.091,-0.2355,-0.1445,0.1635,0.027,-0.19,0.1465,0.0275,0.147,0.154,0.139,0.2055,0.044,-0.1505,0.036
-0.0805,-0.222,-0.1415,0.151,0.031,-0.182,0.148,0.029,0.1525,0.1585,0.142,0.21,0.047,-0.144,0.036
-0.0755,-0.214,-0.138,0.1445,0.0315,-0.176,0.1495,0.0295,0.1535,0.1615,0.147,0.213,0.0475,-0.143,0.0365
-0.08,-0.2165,-0.1365,0.1485,0.0285,-0.177,0.1515,0.029,0.154,0.1615,0.146,0.2135,0.045,-0.145,0.038
-0.0895,-0.2255,-0.136,0.1575,0.0235,-0.181,0.151,0.0305,0.156,0.1635,0.146,0.213,0.0445,-0.1495,0.0385
-0.095,-0.2335,-0.1385,0.1645,0.022,-0.1865,0.151,0.0375,0.1595,0.167,0.1465,0.2135,0.045,-0.1555,0.0355
-0.0975,-0.242,-0.1445,0.1695,0.024,-0.1935,0.151,0.045,0.166,0.169,0.144,0.211,0.045,-0.1615,0.033
-0.09,-0.2425,-0.1525,0.166,0.0315,-0.198,0.1525,0.0605,0.177,0.174,0.144,0.2065,0.044,-0.167,0.0285
-0.0705,-0.2335,-0.163,0.152,0.0465,-0.1985,0.1575,0.08,0.195,0.1865,0.1495,0.2105,0.0465,-0.171,0.024
-0.0535,-0.235,-0.1815,0.144,0.0645,-0.2085,0.161,0.107,0.2215,0.206,0.159,0.218,0.056,-0.18,0.019
-0.047,-0.25,-0.2035,0.1485,0.0785,-0.227,0.159,0.138,0.2455,0.221,0.1635,0.2175,0.065,-0.193,0.013
-0.039,-0.2645,-0.2255,0.152,0.0935,-0.2455,0.152,0.1635,0.2685,0.235,0.1675,0.2195,0.076,-0.207,0.0115
-0.0275,-0.2725,-0.245,0.15,0.109,-0.259,0.1525,0.2045,0.303,0.259,0.177,0.225,0.087,-0.2145,0.0035
-0.022,-0.274,-0.252,0.148,0.115,-0.2635,0.16,0.2465,0.339,0.2815,0.185,0.228,0.0935,-0.217,-0.0085
-0.013,-0.27,-0.257,0.1415,0.1225,-0.2635,0.1635,0.2815,0.375,0.308,0.198,0.234,0.104,-0.218,-0.017
-0.001,-0.272,-0.2705,0.1365,0.135,-0.2715,0.1705,0.3305,0.427,0.345,0.2165,0.2435,0.118,-0.2245,-0.029
0.004,-0.282,-0.2865,0.139,0.1455,-0.2845,0.186,0.391,0.489,0.3845,0.234,0.251,0.127,-0.2345,-0.046
-0.0005,-0.2865,-0.2855,0.1435,0.143,-0.286,0.2075,0.441,0.5425,0.4195,0.2455,0.253,0.1305,-0.2365,-0.0655
-0.0025,-0.2885,-0.286,0.1455,0.142,-0.2875,0.238,0.506,0.611,0.4675,0.265,0.261,0.139,-0.239,-0.091
0.0035,-0.297,-0.3,0.1465,0.152,-0.2985,0.2745,0.5885,0.6855,0.5155,0.2815,0.264,0.145,-0.2465,-0.121
0.016,-0.304,-0.3205,0.144,0.1685,-0.3125,0.3035,0.6665,0.757,0.5655,0.3035,0.2745,0.164,-0.257,-0.148
0.0355,-0.307,-0.3425,0.1355,0.189,-0.325,0.321,0.751,0.8485,0.6465,0.351,0.305,0.201,-0.265,-0.1765
0.045,-0.311,-0.356,0.133,0.2005,-0.3335,0.343,0.8175,0.9305,0.7195,0.389,0.326,0.2265,-0.269,-0.203
0.0465,-0.3165,-0.363,0.135,0.205,-0.34,0.3685,0.8795,1.013,0.788,0.4205,0.341,0.2455,-0.2745,-0.2285
0.0505,-0.316,-0.3665,0.1325,0.209,-0.3415,0.394,0.94,1.0955,0.863,0.461,0.3655,0.2695,-0.2755,-0.256
0.0635,-0.308,-0.372,0.122,0.218,-0.3405,0.4285,1.012,1.198,0.964,0.528,0.4095,0.3145,-0.269,-0.292
0.086,-0.2915,-0.3785,0.1025,0.233,-0.3355,0.4605,1.101,1.3165,1.085,0.609,0.4635,0.372,-0.261,-0.3365
0.117,-0.27,-0.3875,0.076,0.2525,-0.329,0.47,1.1785,1.4255,1.213,0.7015,0.5295,0.4415,-0.25,-0.375
0.147,-0.252,-0.4,0.0525,0.274,-0.326,0.477,1.244,1.5415,1.3545,0.8045,0.6015,0.5175,-0.2415,-0.4085
0.182,-0.246,-0.4285,0.032,0.306,-0.3375,0.4875,1.302,1.651,1.4905,0.896,0.6645,0.5865,-0.2465,-0.441
0.217,-0.239,-0.456,0.0105,0.337,-0.348,0.4955,1.3715,1.775,1.6315,0.9865,0.724,0.6535,-0.248,-0.4775
0.237,-0.231,-0.4685,-0.0035,0.3535,-0.35,0.5125,1.421,1.8805,1.7525,1.0605,0.769,0.702,-0.2435,-0.51
0.2555,-0.225,-0.481,-0.0155,0.3685,-0.3535,0.535,1.463,1.9905,1.89,1.146,0.8225,0.7605,-0.2415,-0.543
0.269,-0.2115,-0.481,-0.029,0.3755,-0.3465,0.56,1.5145,2.125,2.0505,1.2445,0.8805,0.8225,-0.2355,-0.581
0.2825,-0.1895,-0.4725,-0.047,0.378,-0.3315,0.571,1.5435,2.2445,2.2,1.3415,0.9365,0.8795,-0.2245,-0.6085
0.289,-0.148,-0.4375,-0.0705,0.364,-0.293,0.5685,1.5655,2.371,2.358,1.447,0.9995,0.9395,-0.189,-0.6345
0.289,-0.1055,-0.395,-0.092,0.3425,-0.2505,0.5825,1.583,2.491,2.5115,1.5485,1.059,0.996,-0.148,-0.6635
0.2945,-0.066,-0.361,-0.1145,0.328,-0.2135,0.5995,1.599,2.608,2.665,1.649,1.1185,1.051,-0.117,-0.682
0.2905,-0.024,-0.315,-0.1335,0.3035,-0.17,0.622,1.5915,2.683,2.7685,1.718,1.159,1.0815,-0.081,-0.694
0.2835,0.0195,-0.2645,-0.152,0.2745,-0.1225,0.6385,1.5515,2.722,2.845,1.7775,1.193,1.104,-0.0465,-0.702
0.2665,0.074,-0.193,-0.1705,0.2305,-0.0595,0.606,1.471,2.728,2.8975,1.8335,1.231,1.1265,0.0,-0.6865
0.236,0.117,-0.1195,-0.1765,0.1785,-0.0015,0.5655,1.3745,2.683,2.8855,1.853,1.251,1.1305,0.0465,-0.6595
0.217,0.166,-0.0515,-0.192,0.135,0.057,0.5355,1.2705,2.6215,2.8505,1.8585,1.263,1.1215,0.085,-0.626
0.187,0.209,0.0215,-0.198,0.083,0.115,0.4915,1.0965,2.463,2.73,1.821,1.257,1.088,0.128,-0.57
0.129,0.242,0.1125,-0.1855,0.009,0.1765,0.4225,0.894,2.2525,2.556,1.754,1.2345,1.036,0.1785,-0.5065
0.0595,0.2835,0.224,-0.1715,-0.082,0.2535,0.334,0.652,1.9925,2.3245,1.6535,1.1875,0.952,0.233,-0.429
-0.0145,0.2975,0.312,-0.1415,-0.163,0.3045,0.2395,0.355,1.63,1.9705,1.4645,1.087,0.82,0.267,-0.327
-0.0875,0.3035,0.391,-0.108,-0.239,0.347,0.1325,0.0325,1.2275,1.572,1.245,0.9645,0.6695,0.292,-0.21
-0.162,0.2995,0.4615,-0.069,-0.3115,0.3805,0.035,-0.2955,0.8175,1.1905,1.0405,0.8505,0.528,0.3055,-0.0905
-0.222,0.271,0.493,-0.0245,-0.357,0.382,-0.079,-0.593,0.419,0.8295,0.84,0.7375,0.3975,0.299,0.0355
-0.284,0.2325,0.516,0.026,-0.4,0.374,-0.1875,-0.8975,-0.024,0.4375,0.6095,0.5975,0.241,0.284,0.1615
-0.3365,0.181,0.5175,0.078,-0.427,0.349,-0.2615,-1.157,-0.4115,0.0935,0.3925,0.4635,0.098,0.254,0.265
-0.356,0.117,0.4725,0.1195,-0.414,0.2945,-0.3245,-1.3265,-0.6655,-0.1555,0.2095,0.3455,-0.012,0.2125,0.3515
-0.373,0.049,0.422,0.162,-0.3975,0.2355,-0.351,-1.4055,-0.8165,-0.3365,0.0525,0.2365,-0.109,0.168,0.404
-0.378,-0.0155,0.3625,0.197,-0.37,0.173,-0.362,-1.383,-0.8545,-0.4215,-0.0385,0.1715,-0.1605,0.1165,0.427
-0.3695,-0.0735,0.296,0.2215,-0.3325,0.111,-0.3635,-1.3275,-0.8595,-0.4815,-0.1185,0.1135,-0.206,0.0675,0.4425
-0.369,-0.1205,0.249,0.2445,-0.3085,0.064,-0.3515,-1.2455,-0.8275,-0.5085,-0.178,0.065,-0.2425,0.0335,0.442
-0.3605,-0.1495,0.2105,0.255,-0.2855,0.03,-0.3485,-1.1545,-0.7725,-0.499,-0.2,0.043,-0.2485,0.0125,0.438
-0.3455,-0.168,0.1775,0.2565,-0.261,0.0045,-0.3405,-1.0865,-0.74,-0.4995,-0.228,0.0185,-0.259,-0.001,0.4325
-0.325,-0.198,0.127,0.2615,-0.226,-0.036,-0.33,-1.01,-0.692,-0.482,-0.2355,0.01,-0.2525,-0.033,0.426
-0.3025,-0.221,0.0815,0.262,-0.1915,-0.0705,-0.3265,-0.935,-0.635,-0.451,-0.2255,0.0185,-0.2295,-0.065,0.4255
-0.2815,-0.227,0.0545,0.2545,-0.1675,-0.0865,-0.3205,-0.869,-0.5805,-0.4175,-0.2085,0.029,-0.206,-0.078,0.4185
-0.2655,-0.233,0.0325,0.2495,-0.149,-0.1005,-0.3155,-0.8115,-0.535,-0.386,-0.189,0.041,-0.1815,-0.0875,0.408
-0.261,-0.24,0.0215,0.2505,-0.141,-0.1095,-0.314,-0.7685,-0.502,-0.362,-0.1745,0.0465,-0.165,-0.0935,0.4015
-0.2575,-0.245,0.012,0.251,-0.1345,-0.1165,-0.2935,-0.72,-0.4645,-0.3375,-0.161,0.051,-0.1575,-0.0995,0.387
-0.253,-0.2525,0.0005,0.253,-0.1265,-0.1265,-0.2615,-0.6635,-0.4235,-0.3095,-0.1505,0.055,-0.151,-0.1075,0.367
-0.241,-0.262,-0.021,0.2515,-0.1095,-0.1415,-0.232,-0.605,-0.3835,-0.2835,-0.1405,0.0565,-0.143,-0.118,0.348
-0.2165,-0.267,-0.0505,0.242,-0.083,-0.159,-0.203,-0.5465,-0.345,-0.262,-0.131,0.0605,-0.133,-0.13,0.329
-0.1985,-0.275,-0.0765,0.2365,-0.061,-0.176,-0.18,-0.4905,-0.304,-0.234,-0.115,0.0725,-0.117,-0.1465,0.3125
-0.1845,-0.2815,-0.097,0.233,-0.0435,-0.1895,-0.152,-0.4365,-0.2645,-0.2055,-0.0985,0.083,-0.1035,-0.157,0.2925
-0.1655,-0.2865,-0.121,0.226,-0.0225,-0.204,-0.1255,-0.378,-0.2195,-0.1735,-0.078,0.0955,-0.0845,-0.164,0.272
-0.146,-0.2935,-0.148,0.2195,0.001,-0.221,-0.1065,-0.324,-0.1765,-0.1405,-0.057,0.111,-0.0635,-0.174,0.254
-0.1255,-0.294,-0.1685,0.21,0.0215,-0.2315,-0.0915,-0.279,-0.141,-0.11,-0.0385,0.1225,-0.0475,-0.179,0.2375
-0.114,-0.2865,-0.1725,0.2005,0.0295,-0.23,-0.076,-0.2395,-0.1085,-0.081,-0.016,0.1365,-0.03,-0.178,0.22
-0.1085,-0.2785,-0.17,0.1935,0.031,-0.2245,-0.059,-0.209,-0.085,-0.0605,0.0,0.147,-0.019,-0.174,0.2025
-0.1045,-0.2725,-0.168,0.1885,0.032,-0.2205,-0.0415,-0.182,-0.0635,-0.0435,0.011,0.1525,-0.0115,-0.1715,0.187
-0.1035,-0.2705,-0.1675,0.187,0.0325,-0.2195,-0.0235,-0.157,-0.044,-0.027,0.0215,0.1605,-0.004,-0.172,0.1735
-0.1,-0.266,-0.166,0.183,0.033,-0.216,-0.0065,-0.1315,-0.0235,-0.0105,0.032,0.168,0.003,-0.169,0.159
-0.0945,-0.26,-0.1655,0.177,0.0355,-0.213,0.0095,-0.109,-0.0035,0.006,0.0435,0.1755,0.012,-0.167,0.1445
-0.0895,-0.258,-0.169,0.174,0.04,-0.2135,0.022,-0.089,0.0145,0.0215,0.0555,0.1855,0.0215,-0.171,0.135
-0.082,-0.248,-0.166,0.165,0.042,-0.2075,0.0305,-0.0765,0.026,0.03,0.065,0.188,0.025,-0.166,0.1255
-0.0745,-0.244,-0.1695,0.159,0.048,-0.207,0.039,-0.066,0.035,0.037,0.071,0.191,0.0285,-0.1635,0.117
-0.071,-0.2485,-0.1775,0.1595,0.0535,-0.213,0.051,-0.0495,0.0475,0.0495,0.0785,0.199,0.0345,-0.168,0.112
-0.0735,-0.247,-0.1735,0.1605,0.0505,-0.2105,0.063,-0.037,0.058,0.057,0.083,0.2005,0.035,-0.169,0.105
-0.0785,-0.244,-0.165,0.161,0.0435,-0.205,0.0745,-0.0275,0.0655,0.061,0.084,0.198,0.034,-0.1645,0.097
-0.0815,-0.234,-0.1525,0.1575,0.036,-0.1935,0.085,-0.02,0.072,0.0645,0.087,0.199,0.032,-0.1585,0.0895
-0.0785,-0.2255,-0.147,0.152,0.0345,-0.1865,0.092,-0.0165,0.075,0.0665,0.0905,0.1985,0.0295,-0.1575,0.0835
-0.071,-0.2195,-0.1485,0.1455,0.039,-0.184,0.0965,-0.0155,0.075,0.0675,0.092,0.1975,0.029,-0.155,0.081
-0.072,-0.215,-0.1425,0.1435,0.0355,-0.179,0.1005,-0.0145,0.076,0.0675,0.092,0.196,0.026,-0.1535,0.077
-0.0785,-0.214,-0.1355,0.1465,0.0285,-0.175,0.103,-0.015,0.0745,0.067,0.09,0.191,0.0205,-0.152,0.074
-0.0825,-0.2085,-0.126,0.1455,0.022,-0.1675,0.106,-0.0175,0.0715,0.0655,0.088,0.1885,0.017,-0.1445,0.072
-0.086,-0.2045,-0.1185,0.145,0.0165,-0.1615,0.107,-0.0175,0.071,0.0645,0.0895,0.1885,0.016,-0.142,0.0705
-0.086,-0.2035,-0.1175,0.1445,0.016,-0.1605,0.1055,-0.0195,0.068,0.0635,0.09,0.186,0.015,-0.1405,0.07
-0.087,-0.201,-0.114,0.144,0.0135,-0.1575,0.1045,-0.022,0.064,0.0605,0.0855,0.1845,0.0145,-0.135,0.071
-0.0875,-0.201,-0.1135,0.1445,0.013,-0.1575,0.102,-0.0245,0.0605,0.0585,0.082,0.183,0.0135,-0.136,0.0715
-0.09,-0.2015,-0.112,0.146,0.011,-0.157,0.101,-0.027,0.056,0.056,0.0795,0.181,0.0125,-0.1395,0.0705
-0.0955,-0.202,-0.1065,0.149,0.0055,-0.1545,0.1025,-0.027,0.0565,0.0555,0.0775,0.1795,0.012,-0.14,0.0705
-0.0985,-0.2025,-0.104,0.1505,0.003,-0.1535,0.104,-0.0265,0.059,0.055,0.079,0.18,0.0115,-0.138,0.07
-0.1,-0.201,-0.101,0.1505,0.0005,-0.151,0.106,-0.027,0.0575,0.0545,0.0805,0.1815,0.012,-0.1355,0.0705
-0.103,-0.204,-0.101,0.1535,-0.0005,-0.153,0.1065,-0.0265,0.057,0.0545,0.0805,0.1815,0.011,-0.137,0.072
-0.1045,-0.205,-0.1005,0.1545,-0.002,-0.153,0.107,-0.026,0.0555,0.054,0.082,0.184,0.0105,-0.1365,0.0705
-0.1075,-0.2045,-0.0975,0.156,-0.005,-0.151,0.108,-0.0275,0.054,0.0545,0.0825,0.1845,0.011,-0.134,0.0675
-0.109,-0.208,-0.099,0.1585,-0.0045,-0.1535,0.1095,-0.0275,0.054,0.0545,0.083,0.183,0.01,-0.1345,0.068
-0.1125,-0.2115,-0.099,0.162,-0.0065,-0.1555,0.109,-0.028,0.053,0.053,0.081,0.183,0.011,-0.133,0.069
-0.114,-0.2185,-0.1045,0.166,-0.0045,-0.162,0.106,-0.031,0.0495,0.0505,0.077,0.1785,0.0115,-0.133,0.0685
-0.1045,-0.2125,-0.108,0.1585,0.002,-0.1605,0.1055,-0.0345,0.0455,0.0485,0.072,0.1715,0.007,-0.1335,0.0695
-0.0955,-0.199,-0.1035,0.1475,0.0045,-0.1515,0.1085,-0.032,0.047,0.049,0.0745,0.1785,0.0085,-0.131,0.0695
-0.083,-0.186,-0.103,0.1345,0.0105,-0.145,0.112,-0.029,0.0515,0.054,0.0835,0.1865,0.0135,-0.13,0.068
-0.0755,-0.1785,-0.103,0.127,0.014,-0.1415,0.114,-0.027,0.0525,0.0545,0.0835,0.1855,0.0125,-0.1325,0.0665
-0.0775,-0.1825,-0.1045,0.13,0.0135,-0.144,0.1145,-0.0255,0.0525,0.054,0.082,0.185,0.013,-0.1325,0.0665
-0.0825,-0.1855,-0.103,0.134,0.0105,-0.1445,0.113,-0.029,0.0505,0.0525,0.079,0.183,0.014,-0.1305,0.067
-0.084,-0.1845,-0.1,0.1345,0.008,-0.1425,0.1125,-0.0285,0.0495,0.0515,0.0785,0.1845,0.014,-0.1305,0.067
-0.082,-0.1825,-0.1005,0.1325,0.0095,-0.142,0.114,-0.028,0.05,0.0515,0.081,0.185,0.014,-0.13,0.067
-0.0835,-0.184,-0.1,0.134,0.0085,-0.1425,0.1145,-0.028,0.0495,0.0505,0.081,0.186,0.016,-0.13,0.066
-0.085,-0.1865,-0.1015,0.1355,0.0085,-0.144,0.1125,-0.029,0.049,0.048,0.0775,0.185,0.017,-0.1295,0.068
-0.083,-0.184,-0.1015,0.1335,0.0095,-0.143,0.115,-0.0275,0.049,0.0485,0.079,0.184,0.015,-0.127,0.066
-0.0845,-0.183,-0.0985,0.1335,0.0075,-0.141,0.118,-0.025,0.051,0.051,0.084,0.187,0.016,-0.126,0.065
-0.0875,-0.187,-0.0995,0.1375,0.0065,-0.1435,0.119,-0.023,0.0515,0.053,0.084,0.188,0.016,-0.129,0.065
-0.0895,-0.1905,-0.1005,0.14,0.006,-0.146,0.1205,-0.022,0.052,0.053,0.083,0.1875,0.0155,-0.1305,0.065
-0.092,-0.1915,-0.0995,0.1415,0.004,-0.146,0.12,-0.024,0.051,0.052,0.082,0.188,0.016,-0.128,0.0665
-0.0925,-0.19,-0.098,0.141,0.003,-0.1445,0.1205,-0.0235,0.05,0.0505,0.0825,0.1895,0.016,-0.127,0.0665
-0.093,-0.19,-0.0965,0.1415,0.002,-0.1435,0.1185,-0.0245,0.0485,0.049,0.0805,0.189,0.017,-0.1255,0.0655
-0.0955,-0.191,-0.095,0.143,0.0,-0.1435,0.117,-0.0265,0.047,0.049,0.081,0.1885,0.0185,-0.1175,0.0665
-0.0995,-0.191,-0.0915,0.1455,-0.004,-0.1415,0.117,-0.0255,0.046,0.048,0.079,0.187,0.017,-0.115,0.066
-0.1005,-0.19,-0.0895,0.145,-0.005,-0.14,0.1195,-0.0235,0.0475,0.0485,0.079,0.1875,0.016,-0.1205,0.0645
-0.1025,-0.19,-0.0875,0.1465,-0.007,-0.139,0.121,-0.0225,0.0505,0.0505,0.0855,0.193,0.018,-0.1225,0.0625
-0.103,-0.1875,-0.084,0.1455,-0.0095,-0.136,0.1205,-0.023,0.05,0.05,0.084,0.1905,0.0165,-0.119,0.0625
-0.0995,-0.184,-0.0845,0.142,-0.007,-0.1345,0.12,-0.025,0.048,0.049,0.0835,0.1885,0.016,-0.1175,0.061
-0.093,-0.181,-0.088,0.137,-0.0025,-0.1345,0.121,-0.024,0.049,0.0515,0.0865,0.1935,0.02,-0.119,0.0605
-0.0825,-0.174,-0.091,0.1285,0.0045,-0.133,0.123,-0.02,0.0515,0.054,0.089,0.1955,0.0225,-0.119,0.062
-0.0855,-0.1745,-0.089,0.13,0.002,-0.132,0.123,-0.021,0.0505,0.052,0.0885,0.1935,0.0195,-0.1205,0.0615
-0.0865,-0.1745,-0.088,0.1305,0.001,-0.1315,0.1235,-0.023,0.0495,0.0495,0.087,0.192,0.018,-0.1225,0.063
-0.086,-0.174,-0.088,0.13,0.0015,-0.1315,0.122,-0.0255,0.047,0.049,0.0855,0.1915,0.019,-0.126,0.063
-0.0915,-0.177,-0.085,0.134,-0.003,-0.131,0.1195,-0.026,0.046,0.0485,0.0845,0.1905,0.0195,-0.1255,0.063
-0.1005,-0.1845,-0.084,0.1425,-0.008,-0.1345,0.1165,-0.029,0.0435,0.0455,0.08,0.1855,0.018,-0.121,0.0645
-0.104,-0.189,-0.085,0.1465,-0.009,-0.1375,0.115,-0.031,0.0405,0.0445,0.08,0.1855,0.018,-0.119,0.063
-0.094,-0.181,-0.087,0.1375,-0.003,-0.1345,0.1205,-0.027,0.044,0.0475,0.0855,0.19,0.017,-0.119,0.062
-0.091,-0.177,-0.086,0.134,-0.0025,-0.1315,0.1215,-0.0255,0.047,0.049,0.0845,0.189,0.0145,-0.1185,0.062
-0.092,-0.1805,-0.0885,0.136,-0.0015,-0.1345,0.1185,-0.0275,0.045,0.046,0.08,0.186,0.015,-0.1165,0.0635
-0.0915,-0.182,-0.0905,0.1365,0.0,-0.1365,0.1175,-0.0305,0.04,0.0425,0.0775,0.1845,0.0145,-0.116,0.0645
-0.0995,-0.189,-0.0895,0.1445,-0.0045,-0.1395,0.1165,-0.0315,0.0395,0.041,0.077,0.1825,0.013,-0.1195,0.064
-0.107,-0.1935,-0.0865,0.15,-0.0095,-0.1405,0.1175,-0.0305,0.0415,0.042,0.078,0.1835,0.014,-0.12,0.064
-0.1015,-0.186,-0.0845,0.144,-0.008,-0.1355,0.1205,-0.027,0.0445,0.0425,0.081,0.1875,0.014,-0.1205,0.0645
-0.0965,-0.1825,-0.086,0.1395,-0.005,-0.1345,0.123,-0.0255,0.046,0.0445,0.081,0.1885,0.0125,-0.122,0.065
-0.0945,-0.18,-0.0855,0.1375,-0.0045,-0.133,0.1255,-0.023,0.0455,0.0465,0.0825,0.1905,0.013,-0.123,0.066
-0.098,-0.1835,-0.0855,0.141,-0.006,-0.135,0.123,-0.026,0.0435,0.0435,0.0805,0.189,0.0135,-0.122,0.066
-0.1035,-0.1865,-0.083,0.145,-0.01,-0.135,0.12,-0.0305,0.0405,0.04,0.077,0.185,0.0115,-0.1205,0.064
-0.1005,-0.1835,-0.083,0.142,-0.0085,-0.1335,0.1215,-0.03,0.0405,0.04,0.0795,0.186,0.0105,-0.122,0.0635
-0.0955,-0.1825,-0.087,0.139,-0.004,-0.135,0.1215,-0.031,0.04,0.0395,0.078,0.1855,0.0105,-0.1215,0.0635
-0.0905,-0.177,-0.0865,0.1335,-0.002,-0.132,0.1235,-0.0295,0.041,0.0415,0.079,0.187,0.0115,-0.1205,0.0635
-0.0895,-0.173,-0.0835,0.1315,-0.003,-0.1285,0.124,-0.03,0.0405,0.0425,0.081,0.188,0.0135,-0.1205,0.0645
-0.086,-0.171,-0.085,0.1285,-0.0005,-0.128,0.123,-0.031,0.038,0.0405,0.078,0.1855,0.0115,-0.1205,0.064
-0.0825,-0.1685,-0.0855,0.1255,0.0015,-0.127,0.123,-0.031,0.0375,0.0395,0.0765,0.185,0.011,-0.1175,0.0635
-0.085,-0.171,-0.086,0.128,0.0005,-0.129,0.1235,-0.031,0.037,0.0395,0.0765,0.185,0.0095,-0.1175,0.063
-0.0825,-0.1735,-0.091,0.128,0.0045,-0.1325,0.1245,-0.0285,0.038,0.041,0.0775,0.1865,0.009,-0.122,0.064
-0.083,-0.1725,-0.0895,0.128,0.0035,-0.131,0.124,-0.03,0.037,0.041,0.0765,0.1875,0.0105,-0.1225,0.0645
-0.0865,-0.171,-0.0845,0.129,-0.001,-0.128,0.1235,-0.0305,0.0345,0.0405,0.0755,0.186,0.01,-0.1195,0.065
-0.0855,-0.168,-0.0825,0.1265,-0.0015,-0.1255,0.125,-0.028,0.035,0.042,0.0775,0.189,0.012,-0.1185,0.0655
-0.0875,-0.17,-0.082,0.1285,-0.0025,-0.1265,0.1265,-0.027,0.036,0.0415,0.079,0.1895,0.0115,-0.1205,0.065
-0.0895,-0.1725,-0.0835,0.131,-0.003,-0.1285,0.1265,-0.0265,0.035,0.0405,0.0785,0.1865,0.0095,-0.119,0.066
-0.09,-0.174,-0.084,0.132,-0.0025,-0.1295,0.1265,-0.025,0.0355,0.0405,0.0785,0.1885,0.011,-0.1175,0.0675
-0.087,-0.1745,-0.0875,0.1305,0.0005,-0.131,0.127,-0.026,0.035,0.041,0.08,0.191,0.013,-0.1175,0.066
-0.084,-0.17,-0.086,0.1275,0.001,-0.128,0.1255,-0.0275,0.033,0.039,0.0785,0.189,0.011,-0.1135,0.0665
-0.085,-0.1705,-0.0855,0.128,0.0005,-0.128,0.126,-0.028,0.0335,0.041,0.079,0.191,0.0125,-0.1125,0.067
-0.0875,-0.1725,-0.085,0.13,-0.0015,-0.129,0.127,-0.0265,0.035,0.0435,0.0825,0.193,0.013,-0.1145,0.0645
-0.0895,-0.1725,-0.0835,0.131,-0.0025,-0.128,0.1275,-0.027,0.0335,0.0395,0.082,0.191,0.011,-0.117,0.0635
-0.0905,-0.1735,-0.083,0.132,-0.0035,-0.1285,0.128,-0.029,0.0315,0.0405,0.081,0.1915,0.0115,-0.118,0.064
-0.0925,-0.174,-0.0815,0.1335,-0.0055,-0.128,0.127,-0.0295,0.03,0.0385,0.0805,0.1875,0.009,-0.117,0.063
-0.091,-0.1755,-0.0845,0.1335,-0.003,-0.1305,0.1255,-0.03,0.029,0.036,0.0785,0.1875,0.01,-0.1195,0.0625
-0.089,-0.174,-0.085,0.1315,-0.002,-0.13,0.1255,-0.03,0.028,0.0375,0.0785,0.1905,0.0125,-0.118,0.063
-0.087,-0.1725,-0.0855,0.13,-0.0005,-0.1295,0.125,-0.0305,0.0275,0.036,0.0785,0.1885,0.0115,-0.1175,0.062
-0.088,-0.173,-0.0855,0.1305,-0.001,-0.1295,0.1235,-0.032,0.0265,0.0355,0.078,0.1885,0.012,-0.12,0.0625
-0.088,-0.1735,-0.0855,0.131,-0.001,-0.13,0.125,-0.031,0.026,0.035,0.078,0.189,0.0125,-0.119,0.062
-0.086,-0.173,-0.087,0.1295,0.001,-0.1305,0.1225,-0.0325,0.0245,0.032,0.077,0.1885,0.013,-0.12,0.063
-0.0865,-0.172,-0.0855,0.1295,-0.0005,-0.129,0.1205,-0.034,0.0225,0.0305,0.0765,0.188,0.0145,-0.12,0.065
-0.087,-0.1755,-0.088,0.1315,0.001,-0.132,0.122,-0.0335,0.0225,0.0295,0.0755,0.1885,0.015,-0.121,0.065
-0.0865,-0.1745,-0.0875,0.1305,0.0005,-0.1315,0.122,-0.0335,0.0225,0.0285,0.075,0.188,0.0145,-0.121,0.065
-0.09,-0.174,-0.084,0.132,-0.0025,-0.1295,0.123,-0.032,0.0235,0.03,0.077,0.1895,0.014,-0.1195,0.0645
-0.09,-0.174,-0.0845,0.132,-0.0025,-0.13,0.1235,-0.0325,0.025,0.0305,0.0795,0.191,0.015,-0.1175,0.064
-0.0885,-0.172,-0.0835,0.1305,-0.002,-0.128,0.123,-0.0325,0.0235,0.03,0.0805,0.19,0.014,-0.1155,0.0635
-0.0875,-0.1705,-0.083,0.129,-0.002,-0.127,0.1235,-0.033,0.022,0.0295,0.079,0.189,0.0115,-0.117,0.063
-0.083,-0.165,-0.082,0.124,0.0,-0.1235,0.1255,-0.032,0.023,0.03,0.0795,0.19,0.0115,-0.1205,0.064
-0.0865,-0.159,-0.0725,0.123,-0.007,-0.116,0.1285,-0.0285,0.0265,0.0335,0.0825,0.194,0.011,-0.121,0.064
-0.0945,-0.164,-0.0695,0.1295,-0.0125,-0.117,0.129,-0.028,0.0255,0.0345,0.081,0.1945,0.0105,-0.12,0.0655
-0.093,-0.176,-0.0825,0.1345,-0.005,-0.1295,0.1275,-0.0295,0.0235,0.0325,0.08,0.1925,0.01,-0.124,0.0655
-0.0915,-0.178,-0.086,0.135,-0.0025,-0.1325,0.127,-0.0295,0.024,0.0325,0.081,0.192,0.011,-0.1235,0.0655
-0.0945,-0.175,-0.081,0.1345,-0.0065,-0.128,0.1255,-0.031,0.022,0.03,0.079,0.1915,0.012,-0.1205,0.067
-0.093,-0.175,-0.082,0.134,-0.005,-0.129,0.126,-0.031,0.022,0.0275,0.078,0.192,0.012,-0.121,0.0665
-0.091,-0.173,-0.0825,0.132,-0.004,-0.128,0.128,-0.0295,0.0225,0.0295,0.078,0.192,0.0105,-0.12,0.065
-0.091,-0.1705,-0.0795,0.1305,-0.005,-0.125,0.1285,-0.029,0.0215,0.0305,0.078,0.1925,0.0095,-0.1175,0.064
-0.0915,-0.171,-0.0795,0.131,-0.0055,-0.1255,0.1275,-0.03,0.021,0.029,0.078,0.1915,0.01,-0.117,0.0635
-0.0905,-0.17,-0.0795,0.13,-0.005,-0.125,0.1275,-0.0305,0.0205,0.0275,0.0785,0.1905,0.0095,-0.1165,0.0645
-0.0935,-0.1695,-0.0765,0.1315,-0.008,-0.1235,0.1275,-0.031,0.02,0.026,0.078,0.1905,0.0105,-0.116,0.065
-0.0945,-0.1715,-0.077,0.133,-0.0085,-0.1245,0.123,-0.0335,0.016,0.0235,0.0735,0.187,0.0105,-0.117,0.0645
-0.0975,-0.177,-0.0795,0.137,-0.009,-0.1285,0.1195,-0.0365,0.012,0.02,0.0715,0.184,0.0115,-0.1155,0.065
-0.0995,-0.1795,-0.08,0.1395,-0.0095,-0.13,0.119,-0.037,0.0115,0.0185,0.0715,0.184,0.013,-0.1135,0.065
-0.0925,-0.176,-0.084,0.134,-0.004,-0.1305,0.1185,-0.0365,0.01,0.017,0.0705,0.1835,0.0125,-0.1135,0.0655
-0.0865,-0.1715,-0.0855,0.129,0.0,-0.129,0.1205,-0.0355,0.011,0.018,0.0715,0.184,0.0115,-0.1145,0.066
-0.0785,-0.1635,-0.085,0.121,0.0035,-0.1245,0.123,-0.0325,0.013,0.0195,0.0735,0.186,0.0105,-0.1145,0.0655
-0.0795,-0.1605,-0.081,0.12,0.001,-0.121,0.126,-0.029,0.015,0.023,0.076,0.189,0.0105,-0.1135,0.066
-0.0895,-0.166,-0.076,0.128,-0.0065,-0.1215,0.1275,-0.0285,0.015,0.024,0.076,0.189,0.0095,-0.119,0.0665
-0.0975,-0.173,-0.0755,0.1355,-0.0105,-0.1245,0.1245,-0.0295,0.0125,0.021,0.0745,0.1885,0.01,-0.1205,0.0655
-0.095,-0.1705,-0.075,0.133,-0.01,-0.123,0.1255,-0.028,0.014,0.0225,0.0755,0.19,0.0105,-0.1175,0.0655
-0.0875,-0.1655,-0.078,0.1265,-0.0045,-0.122,0.128,-0.0275,0.016,0.0235,0.0755,0.1895,0.009,-0.1225,0.066
-0.0875,-0.168,-0.0805,0.1275,-0.0035,-0.1245,0.127,-0.0275,0.0135,0.0215,0.073,0.187,0.0085,-0.1245,0.065
-0.089,-0.1705,-0.0815,0.13,-0.0035,-0.1265,0.1265,-0.0275,0.012,0.0205,0.073,0.1885,0.009,-0.121,0.0655
-0.0885,-0.1715,-0.083,0.13,-0.0025,-0.1275,0.1245,-0.029,0.01,0.0185,0.0705,0.1865,0.009,-0.121,0.0655
-0.0885,-0.1715,-0.083,0.13,-0.0025,-0.1275,0.124,-0.0295,0.0075,0.015,0.0685,0.1835,0.008,-0.1185,0.066
-0.082,-0.1665,-0.0845,0.124,0.0015,-0.1255,0.1235,-0.0295,0.0095,0.015,0.071,0.185,0.008,-0.1175,0.065
-0.0755,-0.159,-0.0835,0.117,0.004,-0.1215,0.125,-0.0275,0.0105,0.0155,0.072,0.1845,0.0085,-0.1185,0.064
-0.081,-0.161,-0.08,0.121,0.0,-0.1205,0.1265,-0.026,0.0105,0.0155,0.072,0.1835,0.0075,-0.1165,0.0645
-0.086,-0.16,-0.0745,0.123,-0.0055,-0.1175,0.1255,-0.0275,0.0095,0.0145,0.0695,0.182,0.0085,-0.1145,0.064
-0.0835,-0.1555,-0.072,0.1195,-0.0055,-0.114,0.126,-0.0265,0.0085,0.014,0.0695,0.182,0.008,-0.1125,0.063
-0.0775,-0.153,-0.0755,0.1155,-0.001,-0.1145,0.125,-0.025,0.009,0.013,0.0705,0.182,0.007,-0.109,0.0635
-0.0715,-0.1495,-0.0775,0.1105,0.0035,-0.114,0.124,-0.0245,0.0095,0.0125,0.0685,0.1825,0.009,-0.107,0.064
-0.0725,-0.1535,-0.0805,0.113,0.0045,-0.1175,0.125,-0.023,0.009,0.0115,0.0685,0.185,0.0105,-0.11,0.065
-0.0765,-0.1555,-0.079,0.116,0.0015,-0.1175,0.1255,-0.022,0.009,0.01,0.0665,0.1815,0.008,-0.1085,0.0635
-0.0795,-0.155,-0.075,0.117,-0.002,-0.1155,0.1255,-0.0215,0.01,0.0095,0.066,0.181,0.008,-0.107,0.063
-0.082,-0.156,-0.074,0.119,-0.004,-0.1155,0.1265,-0.02,0.01,0.0105,0.068,0.186,0.0105,-0.112,0.0625
-0.08,-0.1525,-0.072,0.116,-0.004,-0.1125,0.1275,-0.018,0.011,0.0105,0.0695,0.186,0.0095,-0.1135,0.0615
-0.0785,-0.152,-0.0735,0.115,-0.0025,-0.113,0.1275,-0.018,0.0115,0.009,0.0665,0.1845,0.008,-0.114,0.063
-0.0795,-0.1565,-0.077,0.118,-0.001,-0.117,0.128,-0.0165,0.012,0.01,0.066,0.184,0.007,-0.117,0.062
-0.084,-0.16,-0.0755,0.122,-0.004,-0.118,0.1275,-0.016,0.012,0.009,0.068,0.1855,0.0085,-0.1185,0.062
-0.0865,-0.1565,-0.07,0.1215,-0.008,-0.1135,0.127,-0.0155,0.0105,0.007,0.0655,0.1845,0.009,-0.1155,0.0625
-0.086,-0.1535,-0.067,0.12,-0.0095,-0.1105,0.1285,-0.0125,0.0115,0.007,0.0655,0.1835,0.007,-0.1165,0.0615
-0.087,-0.153,-0.066,0.12,-0.0105,-0.11,0.131,-0.01,0.014,0.008,0.0665,0.1835,0.004,-0.1195,0.06
-0.0855,-0.1535,-0.0675,0.1195,-0.0085,-0.1105,0.132,-0.0075,0.0145,0.0085,0.068,0.185,0.0045,-0.1205,0.0595
-0.093,-0.1625,-0.0695,0.1275,-0.0115,-0.116,0.1315,-0.007,0.0135,0.007,0.068,0.183,0.005,-0.119,0.06
-0.09,-0.1625,-0.0725,0.126,-0.0085,-0.118,0.1325,-0.006,0.014,0.0075,0.069,0.1815,0.004,-0.114,0.058
-0.0855,-0.1615,-0.0765,0.1235,-0.004,-0.1195,0.129,-0.006,0.0105,0.004,0.065,0.178,0.005,-0.111,0.0575
-0.0865,-0.171,-0.084,0.129,-0.001,-0.128,0.124,-0.0085,0.006,-0.001,0.0595,0.173,0.005,-0.112,0.056
-0.0755,-0.1655,-0.0895,0.1205,0.007,-0.1275,0.1235,-0.0075,0.007,-0.0025,0.0595,0.174,0.0045,-0.1145,0.056
-0.071,-0.158,-0.087,0.1145,0.0085,-0.123,0.126,-0.005,0.0075,-0.004,0.058,0.1745,0.0045,-0.1135,0.0565
-0.0665,-0.1515,-0.085,0.109,0.0095,-0.1185,0.1285,-0.0035,0.009,-0.0015,0.057,0.1755,0.0035,-0.111,0.056
-0.0645,-0.1475,-0.083,0.106,0.0095,-0.1155,0.127,-0.0015,0.0085,-0.0045,0.056,0.1745,0.0025,-0.112,0.056
-0.0685,-0.152,-0.0835,0.11,0.008,-0.118,0.1295,0.0035,0.011,-0.003,0.0575,0.1775,0.0035,-0.116,0.056
-0.069,-0.1535,-0.085,0.111,0.0085,-0.1195,0.1325,0.0075,0.014,-0.0005,0.059,0.179,0.0025,-0.117,0.0555
-0.0725,-0.1565,-0.0845,0.1145,0.0065,-0.1205,0.1325,0.0085,0.0135,-0.0035,0.056,0.1755,0.001,-0.116,0.056
-0.0755,-0.1605,-0.0855,0.118,0.005,-0.1235,0.1305,0.009,0.012,-0.005,0.054,0.1715,0.0,-0.1155,0.0555
-0.071,-0.1565,-0.0855,0.1135,0.0075,-0.121,0.133,0.011,0.0135,-0.0045,0.0555,0.172,-0.001,-0.1185,0.0545
-0.067,-0.151,-0.084,0.109,0.009,-0.118,0.1365,0.0155,0.0165,-0.002,0.0565,0.1735,-0.001,-0.12,0.0545
-0.0655,-0.1545,-0.0895,0.11,0.012,-0.1225,0.133,0.016,0.0145,-0.006,0.0525,0.171,-0.002,-0.115,0.053
-0.061,-0.156,-0.0945,0.1085,0.017,-0.1255,0.134,0.0175,0.0145,-0.007,0.052,0.172,-0.001,-0.1155,0.052
-0.0605,-0.1575,-0.0965,0.109,0.018,-0.1275,0.1355,0.0215,0.0165,-0.0055,0.0535,0.1725,-0.001,-0.1185,0.0515
-0.065,-0.163,-0.0985,0.114,0.017,-0.131,0.135,0.0245,0.0175,-0.0055,0.053,0.1725,0.0,-0.1205,0.0515
-0.068,-0.168,-0.1,0.118,0.0165,-0.1345,0.136,0.028,0.018,-0.0065,0.0535,0.1725,0.0005,-0.123,0.0525
-0.0665,-0.168,-0.1015,0.117,0.018,-0.135,0.135,0.0295,0.0155,-0.008,0.0515,0.1695,0.0,-0.1285,0.0525
-0.0665,-0.1675,-0.101,0.117,0.0175,-0.1345,0.134,0.0305,0.0145,-0.01,0.0485,0.168,-0.0005,-0.127,0.0515
-0.067,-0.168,-0.101,0.1175,0.0175,-0.135,0.133,0.033,0.016,-0.013,0.0475,0.166,-0.002,-0.1235,0.0505
-0.0625,-0.1645,-0.102,0.1135,0.02,-0.1335,0.1335,0.0355,0.0175,-0.0125,0.046,0.165,-0.001,-0.1225,0.051
-0.0605,-0.1655,-0.1045,0.113,0.022,-0.135,0.135,0.04,0.0195,-0.0125,0.0475,0.166,0.002,-0.1205,0.0515
-0.0605,-0.1695,-0.1085,0.115,0.024,-0.1395,0.135,0.0435,0.019,-0.0135,0.0455,0.1675,0.002,-0.1245,0.0515
-0.061,-0.1685,-0.1075,0.115,0.0235,-0.138,0.1355,0.0465,0.02,-0.0145,0.044,0.168,-0.0005,-0.127,0.05
-0.068,-0.17,-0.102,0.119,0.017,-0.136,0.136,0.05,0.0215,-0.016,0.0475,0.1675,0.0,-0.129,0.049
-0.07,-0.172,-0.102,0.121,0.016,-0.1375,0.1355,0.0515,0.021,-0.02,0.0415,0.159,-0.004,-0.1315,0.049
-0.064,-0.171,-0.107,0.1175,0.022,-0.1395,0.134,0.0535,0.0195,-0.024,0.036,0.154,-0.006,-0.131,0.0495
-0.061,-0.171,-0.1105,0.116,0.0245,-0.141,0.1345,0.057,0.02,-0.023,0.039,0.1595,-0.001,-0.13,0.0495
-0.059,-0.1725,-0.1135,0.116,0.0275,-0.143,0.1355,0.061,0.0225,-0.0235,0.0385,0.1565,-0.0035,-0.1315,0.0495
-0.0585,-0.174,-0.1155,0.116,0.0285,-0.145,0.1335,0.064,0.0235,-0.025,0.0345,0.154,-0.005,-0.1335,0.048
-0.0575,-0.1775,-0.12,0.117,0.0315,-0.149,0.133,0.0675,0.024,-0.0255,0.034,0.1535,-0.0055,-0.1355,0.046
-0.0575,-0.1815,-0.1245,0.1195,0.0335,-0.1535,0.1345,0.0715,0.025,-0.0265,0.033,0.151,-0.008,-0.142,0.046
-0.0625,-0.188,-0.126,0.125,0.032,-0.1575,0.1345,0.075,0.026,-0.0265,0.0315,0.151,-0.008,-0.1495,0.0455
-0.0615,-0.192,-0.1305,0.1265,0.0345,-0.1615,0.1335,0.077,0.027,-0.0285,0.029,0.149,-0.0075,-0.1495,0.0445
-0.061,-0.1955,-0.1345,0.128,0.037,-0.165,0.135,0.082,0.03,-0.029,0.029,0.1475,-0.008,-0.15,0.044
-0.0605,-0.1995,-0.139,0.13,0.0395,-0.1695,0.136,0.087,0.031,-0.0305,0.0275,0.146,-0.009,-0.1535,0.0425
-0.0595,-0.1995,-0.14,0.1295,0.0405,-0.17,0.137,0.0895,0.0315,-0.032,0.025,0.1435,-0.0105,-0.1545,0.0425
-0.059,-0.2025,-0.1435,0.1305,0.0425,-0.173,0.137,0.0945,0.034,-0.0305,0.0245,0.1455,-0.0085,-0.1585,0.042
-0.0565,-0.2035,-0.1465,0.13,0.045,-0.1755,0.136,0.097,0.035,-0.032,0.024,0.1465,-0.0075,-0.1555,0.041
-0.06,-0.2065,-0.1465,0.133,0.044,-0.177,0.1385,0.1035,0.0375,-0.032,0.022,0.144,-0.011,-0.158,0.039
-0.0625,-0.2135,-0.151,0.138,0.0445,-0.1825,0.138,0.1085,0.039,-0.0315,0.0195,0.141,-0.012,-0.166,0.0385
-0.059,-0.215,-0.156,0.137,0.049,-0.1855,0.1375,0.1115,0.039,-0.0335,0.0175,0.138,-0.0115,-0.1655,0.0375
-0.053,-0.2155,-0.1625,0.1345,0.055,-0.189,0.137,0.1135,0.039,-0.0365,0.0145,0.1355,-0.0115,-0.1675,0.038
-0.049,-0.2165,-0.1675,0.133,0.0595,-0.192,0.136,0.117,0.0395,-0.037,0.0115,0.1335,-0.012,-0.1665,0.0375
-0.0485,-0.2185,-0.17,0.1335,0.061,-0.1945,0.1365,0.124,0.041,-0.037,0.009,0.1315,-0.0135,-0.1675,0.036
-0.0485,-0.218,-0.17,0.133,0.061,-0.1945,0.136,0.128,0.042,-0.039,0.006,0.1295,-0.014,-0.1685,0.037
-0.0465,-0.2195,-0.173,0.133,0.064,-0.1965,0.137,0.133,0.046,-0.0385,0.0055,0.1285,-0.013,-0.1705,0.036
-0.0445,-0.2245,-0.18,0.134,0.068,-0.2025,0.1385,0.1385,0.049,-0.039,0.006,0.1275,-0.0135,-0.1745,0.0345
-0.041,-0.2245,-0.1835,0.133,0.0715,-0.2045,0.14,0.1445,0.0515,-0.038,0.003,0.127,-0.0135,-0.1765,0.0355
-0.04,-0.2265,-0.186,0.1335,0.073,-0.2065,0.1425,0.152,0.055,-0.0365,0.0005,0.1265,-0.0145,-0.1805,0.035
-0.0425,-0.23,-0.188,0.136,0.073,-0.209,0.1435,0.1585,0.0585,-0.035,0.004,0.128,-0.013,-0.181,0.0345
-0.0395,-0.23,-0.191,0.1345,0.076,-0.2105,0.1445,0.164,0.0625,-0.0335,0.005,0.128,-0.0125,-0.184,0.0345
-0.0365,-0.23,-0.1935,0.133,0.0785,-0.212,0.1465,0.1705,0.067,-0.0335,0.0015,0.126,-0.0145,-0.185,0.032
-0.036,-0.2315,-0.195,0.1335,0.08,-0.2135,0.148,0.176,0.0715,-0.0315,0.0035,0.1265,-0.014,-0.186,0.0305
-0.0345,-0.234,-0.1995,0.1345,0.0825,-0.217,0.1505,0.1815,0.0735,-0.0295,0.0035,0.1275,-0.0125,-0.1925,0.0315
-0.034,-0.239,-0.205,0.1365,0.0855,-0.222,0.15,0.1885,0.075,-0.0305,0.0,0.1275,-0.0135,-0.194,0.0325
-0.0325,-0.241,-0.2085,0.1365,0.088,-0.225,0.1505,0.1935,0.081,-0.03,-0.001,0.1255,-0.0145,-0.198,0.0325
-0.025,-0.2415,-0.2165,0.133,0.096,-0.229,0.151,0.197,0.0825,-0.031,-0.0045,0.122,-0.0155,-0.203,0.0315
-0.0135,-0.239,-0.2255,0.126,0.106,-0.2325,0.149,0.2,0.0835,-0.0325,-0.007,0.12,-0.0155,-0.2045,0.029
-0.013,-0.2405,-0.2275,0.127,0.1075,-0.2345,0.1495,0.206,0.0865,-0.0325,-0.008,0.119,-0.016,-0.2045,0.0275
-0.022,-0.249,-0.227,0.1355,0.103,-0.2385,0.151,0.2135,0.0895,-0.0305,-0.009,0.117,-0.0165,-0.2085,0.027
-0.024,-0.2505,-0.226,0.137,0.1015,-0.2385,0.1535,0.2205,0.095,-0.027,-0.0095,0.116,-0.017,-0.212,0.026
-0.022,-0.252,-0.23,0.1375,0.104,-0.2415,0.1535,0.226,0.0975,-0.0275,-0.012,0.116,-0.017,-0.212,0.026
-0.0175,-0.256,-0.2385,0.1365,0.111,-0.2475,0.1535,0.2315,0.1005,-0.0265,-0.013,0.1125,-0.0185,-0.2135,0.026
-0.019,-0.261,-0.242,0.14,0.112,-0.2515,0.1535,0.235,0.1,-0.028,-0.017,0.1085,-0.0195,-0.218,0.0255
-0.017,-0.26,-0.243,0.1385,0.1135,-0.2515,0.152,0.241,0.103,-0.028,-0.0195,0.1075,-0.0195,-0.2265,0.0245
-0.017,-0.262,-0.245,0.139,0.1145,-0.2535,0.151,0.2465,0.1085,-0.027,-0.0205,0.104,-0.0195,-0.227,0.024
-0.028,-0.2755,-0.247,0.1515,0.11,-0.2615,0.149,0.251,0.109,-0.028,-0.024,0.1005,-0.018,-0.2235,0.0225
-0.019,-0.2735,-0.2545,0.1465,0.118,-0.264,0.152,0.259,0.1165,-0.0245,-0.022,0.102,-0.0165,-0.222,0.0225
-0.0135,-0.2725,-0.259,0.143,0.123,-0.266,0.154,0.2655,0.123,-0.023,-0.021,0.102,-0.017,-0.221,0.0215
-0.0195,-0.2775,-0.2585,0.1485,0.12,-0.268,0.155,0.2715,0.1275,-0.021,-0.023,0.1,-0.018,-0.227,0.02
-0.019,-0.278,-0.259,0.1485,0.12,-0.2685,0.1565,0.2785,0.1325,-0.0185,-0.0235,0.0985,-0.019,-0.2335,0.0195
-0.021,-0.2885,-0.268,0.1545,0.124,-0.2785,0.157,0.2855,0.1375,-0.0165,-0.024,0.098,-0.0185,-0.2375,0.0185
-0.0215,-0.2985,-0.277,0.16,0.128,-0.288,0.159,0.293,0.144,-0.0135,-0.0235,0.0975,-0.0185,-0.2435,0.0185
-0.021,-0.3025,-0.2815,0.1615,0.1305,-0.292,0.1605,0.3005,0.15,-0.011,-0.0235,0.0965,-0.018,-0.2495,0.018
-0.021,-0.3055,-0.2845,0.163,0.132,-0.2955,0.1625,0.3105,0.158,-0.007,-0.023,0.098,-0.0175,-0.2525,0.0175
-0.0235,-0.312,-0.2885,0.168,0.1325,-0.3005,0.1635,0.318,0.163,-0.007,-0.024,0.095,-0.02,-0.255,0.0155
-0.0205,-0.316,-0.2955,0.168,0.138,-0.3055,0.1635,0.3235,0.167,-0.005,-0.026,0.0945,-0.0195,-0.2575,0.0135
-0.0125,-0.312,-0.2995,0.1625,0.1435,-0.306,0.1645,0.3325,0.174,-0.002,-0.0255,0.095,-0.0185,-0.259,0.0115
-0.0075,-0.3115,-0.304,0.1595,0.1485,-0.308,0.1675,0.3425,0.183,0.003,-0.0215,0.0945,-0.019,-0.2625,0.009
-0.004,-0.311,-0.307,0.1575,0.152,-0.3095,0.17,0.3525,0.1895,0.0085,-0.0215,0.094,-0.019,-0.266,0.0055
0.001,-0.3075,-0.3085,0.153,0.155,-0.308,0.1725,0.363,0.1975,0.013,-0.02,0.0935,-0.0185,-0.2665,0.005
0.002,-0.3105,-0.312,0.154,0.1575,-0.3115,0.1725,0.37,0.204,0.0165,-0.019,0.0945,-0.0165,-0.266,0.0045
-0.001,-0.3175,-0.3165,0.159,0.158,-0.317,0.1715,0.3755,0.2085,0.019,-0.0195,0.0925,-0.015,-0.27,0.003
0.0015,-0.3195,-0.321,0.159,0.1615,-0.3205,0.1735,0.3825,0.2155,0.0225,-0.0175,0.092,-0.014,-0.274,0.0015
0.0035,-0.3215,-0.3245,0.159,0.1645,-0.3235,0.1715,0.3875,0.2195,0.0245,-0.0195,0.0895,-0.0125,-0.2755,0.001
0.002,-0.323,-0.3255,0.1605,0.164,-0.3245,0.1725,0.3965,0.2285,0.0295,-0.0185,0.09,-0.0125,-0.278,0.0005
0.0005,-0.326,-0.3265,0.163,0.164,-0.3265,0.175,0.4045,0.2395,0.035,-0.0165,0.0915,-0.011,-0.277,-0.002
0.0035,-0.326,-0.3295,0.1615,0.1665,-0.328,0.1755,0.4125,0.247,0.0395,-0.016,0.091,-0.01,-0.2775,-0.0025
0.0075,-0.322,-0.33,0.1575,0.169,-0.3265,0.1795,0.4235,0.257,0.047,-0.012,0.094,-0.009,-0.2815,-0.0035
0.005,-0.325,-0.33,0.16,0.1675,-0.3275,0.1805,0.4275,0.263,0.0515,-0.0105,0.0935,-0.008,-0.286,-0.005
0.007,-0.326,-0.3335,0.1595,0.1705,-0.33,0.1815,0.434,0.2725,0.0575,-0.0085,0.094,-0.0075,-0.287,-0.0055
0.011,-0.3275,-0.3385,0.158,0.175,-0.333,0.1835,0.441,0.2805,0.0635,-0.0065,0.0955,-0.006,-0.2835,-0.008
0.007,-0.3325,-0.339,0.163,0.173,-0.336,0.183,0.447,0.287,0.069,-0.0045,0.097,-0.0025,-0.284,-0.009
0.0105,-0.3325,-0.343,0.161,0.177,-0.338,0.186,0.456,0.2985,0.0775,0.001,0.103,0.0,-0.2865,-0.0105
0.0115,-0.333,-0.3445,0.1605,0.1785,-0.339,0.188,0.462,0.3055,0.085,0.0065,0.105,0.0015,-0.287,-0.013
0.0095,-0.335,-0.344,0.163,0.177,-0.3395,0.189,0.4665,0.3125,0.0905,0.009,0.106,0.003,-0.285,-0.014
0.014,-0.333,-0.347,0.1595,0.1805,-0.34,0.1915,0.4715,0.321,0.0965,0.014,0.109,0.006,-0.285,-0.0155
0.015,-0.332,-0.347,0.1585,0.1815,-0.34,0.1935,0.476,0.3295,0.105,0.0185,0.1115,0.009,-0.289,-0.017
0.0175,-0.33,-0.348,0.1565,0.183,-0.3395,0.1935,0.4785,0.3355,0.1125,0.0215,0.1145,0.0115,-0.289,-0.019
0.019,-0.3275,-0.347,0.1545,0.183,-0.3375,0.1945,0.4815,0.342,0.119,0.0255,0.1175,0.014,-0.2865,-0.0195
0.018,-0.326,-0.344,0.154,0.181,-0.335,0.1945,0.485,0.35,0.126,0.03,0.119,0.016,-0.285,-0.021
0.0165,-0.3255,-0.342,0.1545,0.1795,-0.334,0.194,0.4855,0.3555,0.1315,0.034,0.121,0.018,-0.2835,-0.021
0.014,-0.3265,-0.3405,0.1565,0.1775,-0.334,0.1955,0.487,0.3605,0.1375,0.0385,0.1215,0.019,-0.281,-0.023
0.009,-0.3285,-0.3375,0.1595,0.1735,-0.333,0.1965,0.4875,0.3665,0.1435,0.0425,0.1255,0.021,-0.279,-0.025
0.008,-0.327,-0.335,0.1595,0.172,-0.3315,0.1965,0.4875,0.3715,0.15,0.047,0.1295,0.0245,-0.2805,-0.0245
0.0115,-0.321,-0.3325,0.155,0.1725,-0.327,0.198,0.489,0.3775,0.1575,0.052,0.1335,0.028,-0.278,-0.025
0.0145,-0.319,-0.3335,0.152,0.1745,-0.3265,0.1995,0.488,0.3825,0.1635,0.056,0.136,0.03,-0.2745,-0.0265
0.015,-0.3185,-0.333,0.1515,0.174,-0.326,0.1985,0.486,0.385,0.168,0.0585,0.1355,0.0305,-0.2755,-0.028
0.0095,-0.3165,-0.326,0.1535,0.168,-0.3215,0.1985,0.4845,0.3885,0.174,0.061,0.139,0.0325,-0.2755,-0.029
0.008,-0.315,-0.323,0.1535,0.1655,-0.319,0.2005,0.482,0.3925,0.181,0.0665,0.1415,0.0345,-0.273,-0.0295
0.008,-0.3135,-0.3215,0.153,0.165,-0.3175,0.201,0.481,0.397,0.1875,0.071,0.1455,0.037,-0.268,-0.03
0.0085,-0.3105,-0.319,0.151,0.164,-0.315,0.2005,0.4805,0.4005,0.194,0.077,0.1505,0.0395,-0.2665,-0.0315
0.004,-0.3075,-0.3115,0.1515,0.158,-0.31,0.2005,0.4765,0.403,0.2005,0.0825,0.154,0.042,-0.2675,-0.0315
-0.005,-0.3095,-0.304,0.1575,0.15,-0.307,0.2005,0.472,0.405,0.2045,0.0845,0.157,0.0445,-0.2625,-0.0295
-0.008,-0.3095,-0.302,0.1585,0.1475,-0.306,0.1985,0.466,0.405,0.208,0.0875,0.1565,0.046,-0.2605,-0.0305
-0.0025,-0.306,-0.3035,0.1545,0.1505,-0.305,0.196,0.4585,0.4045,0.212,0.0905,0.1575,0.0485,-0.2585,-0.0315
0.01,-0.299,-0.3085,0.1445,0.1595,-0.304,0.192,0.451,0.4015,0.215,0.093,0.1575,0.05,-0.253,-0.0315
0.0095,-0.2945,-0.304,0.1425,0.157,-0.2995,0.1905,0.445,0.4025,0.219,0.097,0.1595,0.0525,-0.25,-0.0325
0.0045,-0.2925,-0.297,0.144,0.151,-0.295,0.1945,0.444,0.407,0.2275,0.106,0.1675,0.055,-0.248,-0.034
0.0005,-0.2895,-0.2895,0.1445,0.1455,-0.29,0.1975,0.442,0.4095,0.2335,0.1125,0.173,0.0565,-0.2445,-0.0335
-0.004,-0.2885,-0.284,0.1465,0.14,-0.2865,0.198,0.4375,0.411,0.239,0.1175,0.177,0.0585,-0.24,-0.0335
-0.004,-0.2825,-0.2785,0.1435,0.1375,-0.2805,0.195,0.43,0.4095,0.243,0.121,0.1795,0.0615,-0.2375,-0.033
0.001,-0.2705,-0.2715,0.1345,0.1365,-0.271,0.1965,0.426,0.4125,0.249,0.1295,0.1855,0.0655,-0.2325,-0.033
0.01,-0.264,-0.274,0.127,0.1425,-0.269,0.201,0.425,0.416,0.257,0.1375,0.191,0.0645,-0.23,-0.033
0.008,-0.2675,-0.276,0.1295,0.142,-0.272,0.2,0.4175,0.413,0.2585,0.1405,0.194,0.0665,-0.231,-0.0325
0.0035,-0.269,-0.2725,0.1325,0.1385,-0.271,0.1975,0.408,0.4095,0.259,0.1415,0.1945,0.069,-0.2295,-0.033
-0.011,-0.2735,-0.2625,0.142,0.126,-0.2685,0.194,0.3985,0.406,0.2595,0.1425,0.1945,0.0695,-0.224,-0.0325
-0.0235,-0.279,-0.2555,0.151,0.1165,-0.2675,0.1915,0.391,0.4035,0.2605,0.1455,0.195,0.071,-0.219,-0.0315
-0.0195,-0.276,-0.2565,0.148,0.1185,-0.2665,0.19,0.3835,0.401,0.263,0.1475,0.1965,0.0725,-0.2185,-0.0315
-0.02,-0.2725,-0.2525,0.146,0.1165,-0.2625,0.189,0.3755,0.398,0.2645,0.149,0.1975,0.0725,-0.2185,-0.031
-0.0225,-0.268,-0.246,0.145,0.112,-0.257,0.1895,0.368,0.3965,0.2665,0.1525,0.199,0.0735,-0.2205,-0.0305
-0.021,-0.262,-0.2405,0.1415,0.11,-0.2515,0.1915,0.363,0.3955,0.2695,0.158,0.2035,0.075,-0.2165,-0.0305
-0.0205,-0.2585,-0.238,0.1395,0.109,-0.2485,0.1915,0.357,0.392,0.2725,0.1605,0.2065,0.077,-0.212,-0.0285
-0.0225,-0.259,-0.2365,0.1405,0.1075,-0.2475,0.1905,0.3495,0.391,0.2735,0.164,0.2105,0.079,-0.2115,-0.026
-0.023,-0.256,-0.2325,0.1395,0.105,-0.2445,0.1925,0.3445,0.3905,0.2765,0.169,0.213,0.0795,-0.208,-0.0265
-0.0215,-0.252,-0.2305,0.137,0.105,-0.242,0.1925,0.337,0.388,0.278,0.17,0.2155,0.08,-0.205,-0.0245
-0.0225,-0.252,-0.23,0.1375,0.104,-0.2415,0.192,0.3295,0.386,0.2785,0.173,0.219,0.0815,-0.207,-0.0235
-0.0225,-0.2515,-0.229,0.1365,0.1035,-0.2405,0.1925,0.325,0.3845,0.2805,0.1765,0.221,0.0815,-0.2075,-0.0225
-0.02,-0.2455,-0.225,0.1325,0.103,-0.2355,0.1915,0.319,0.38,0.28,0.178,0.2225,0.0815,-0.206,-0.021
-0.02,-0.2405,-0.221,0.1305,0.101,-0.231,0.191,0.311,0.376,0.28,0.1795,0.2225,0.0815,-0.201,-0.022
-0.0225,-0.242,-0.2195,0.132,0.099,-0.231,0.1895,0.3035,0.373,0.2795,0.179,0.2235,0.082,-0.193,-0.0205
-0.024,-0.244,-0.22,0.134,0.0985,-0.2325,0.1855,0.2935,0.3665,0.276,0.1765,0.2225,0.0835,-0.192,-0.0195
-0.026,-0.244,-0.2175,0.135,0.096,-0.231,0.183,0.285,0.3615,0.274,0.1765,0.2215,0.084,-0.189,-0.0185
-0.0305,-0.2405,-0.2095,0.1355,0.09,-0.2255,0.182,0.2795,0.3575,0.273,0.178,0.222,0.0825,-0.1835,-0.019
-0.0315,-0.2345,-0.203,0.133,0.086,-0.219,0.1795,0.271,0.3525,0.27,0.1775,0.221,0.0835,-0.1795,-0.018
-0.034,-0.2325,-0.1985,0.1335,0.0825,-0.2155,0.1795,0.2655,0.351,0.27,0.179,0.222,0.0835,-0.1795,-0.0165
-0.0375,-0.2325,-0.1955,0.135,0.0795,-0.2145,0.1805,0.2615,0.349,0.271,0.1805,0.223,0.082,-0.1795,-0.0155
-0.0335,-0.229,-0.1955,0.131,0.0815,-0.2125,0.18,0.2555,0.3465,0.2715,0.1815,0.2255,0.082,-0.177,-0.014
-0.0285,-0.221,-0.1925,0.125,0.082,-0.207,0.1825,0.2525,0.3465,0.2745,0.185,0.229,0.081,-0.1755,-0.0135
-0.026,-0.214,-0.188,0.12,0.0815,-0.2015,0.185,0.251,0.347,0.277,0.1895,0.2315,0.079,-0.176,-0.012
-0.0255,-0.2115,-0.186,0.1185,0.0805,-0.199,0.184,0.2455,0.3425,0.2765,0.19,0.231,0.0785,-0.1735,-0.0115
-0.0275,-0.211,-0.183,0.1195,0.078,-0.1975,0.183,0.2395,0.338,0.2755,0.1905,0.231,0.079,-0.173,-0.012
-0.0355,-0.217,-0.1815,0.126,0.073,-0.199,0.1805,0.232,0.3335,0.272,0.1885,0.2315,0.0795,-0.1765,-0.0115
-0.0405,-0.2215,-0.1815,0.131,0.0705,-0.2015,0.179,0.2255,0.3295,0.2705,0.186,0.2305,0.08,-0.175,-0.009
-0.038,-0.2185,-0.1805,0.1285,0.071,-0.1995,0.179,0.222,0.328,0.27,0.1875,0.233,0.08,-0.173,-0.0075
-0.041,-0.2195,-0.1785,0.13,0.069,-0.199,0.177,0.2155,0.3235,0.2675,0.1875,0.2335,0.08,-0.1725,-0.006
-0.0385,-0.216,-0.1775,0.127,0.0695,-0.197,0.1765,0.2105,0.3195,0.2665,0.189,0.234,0.08,-0.1725,-0.0045
-0.0385,-0.216,-0.1775,0.127,0.0695,-0.197,0.174,0.2045,0.3175,0.264,0.1885,0.235,0.079,-0.17,-0.004
-0.0365,-0.213,-0.1765,0.125,0.0705,-0.195,0.1735,0.201,0.3145,0.264,0.1875,0.2365,0.08,-0.167,-0.0025
-0.034,-0.2095,-0.1755,0.122,0.071,-0.193,0.174,0.199,0.312,0.2635,0.1885,0.237,0.08,-0.1645,-0.0005
-0.05,-0.2205,-0.1705,0.135,0.0605,-0.1955,0.1695,0.1915,0.3035,0.2575,0.1845,0.2325,0.079,-0.159,-0.001
-0.0525,-0.218,-0.1655,0.135,0.0565,-0.192,0.166,0.186,0.2975,0.254,0.183,0.23,0.077,-0.1555,0.0
-0.0505,-0.216,-0.1655,0.1335,0.0575,-0.191,0.1655,0.182,0.2955,0.2525,0.183,0.231,0.0775,-0.157,0.001
-0.05,-0.215,-0.165,0.1325,0.058,-0.19,0.166,0.1785,0.2925,0.2515,0.181,0.231,0.0765,-0.1545,0.0005
-0.0455,-0.211,-0.166,0.128,0.0605,-0.1885,0.1645,0.1755,0.29,0.25,0.1825,0.2295,0.0755,-0.155,0.002
-0.046,-0.2105,-0.165,0.1285,0.0595,-0.188,0.1635,0.1725,0.286,0.2485,0.1815,0.231,0.0765,-0.161,0.001
-0.048,-0.209,-0.1615,0.1285,0.057,-0.1855,0.1655,0.1705,0.285,0.249,0.182,0.232,0.076,-0.1575,0.0025
-0.0515,-0.2085,-0.157,0.13,0.053,-0.183,0.1655,0.1685,0.284,0.248,0.1825,0.231,0.076,-0.1535,0.005
-0.0565,-0.209,-0.1525,0.1325,0.0485,-0.181,0.1655,0.1665,0.282,0.2465,0.182,0.2325,0.0745,-0.155,0.006
-0.0645,-0.2175,-0.1525,0.141,0.0445,-0.1855,0.1625,0.1595,0.277,0.2415,0.1775,0.2305,0.074,-0.152,0.008
-0.064,-0.2175,-0.1535,0.141,0.045,-0.186,0.1605,0.156,0.2735,0.24,0.1755,0.2305,0.075,-0.15,0.01
-0.057,-0.2115,-0.1545,0.1345,0.049,-0.1835,0.163,0.1575,0.274,0.2425,0.178,0.234,0.075,-0.1525,0.01
-0.0545,-0.2105,-0.156,0.1325,0.051,-0.1835,0.1615,0.153,0.2705,0.241,0.1775,0.2325,0.0755,-0.1495,0.01
-0.0575,-0.2095,-0.152,0.1335,0.0475,-0.181,0.1625,0.153,0.2715,0.2415,0.1795,0.2335,0.0745,-0.1495,0.011
-0.0595,-0.208,-0.148,0.134,0.0445,-0.1785,0.1645,0.1525,0.271,0.241,0.181,0.2345,0.0725,-0.151,0.0095
-0.062,-0.208,-0.1455,0.135,0.042,-0.177,0.165,0.1505,0.2695,0.239,0.181,0.2355,0.072,-0.153,0.01
-0.0595,-0.204,-0.144,0.1315,0.0425,-0.174,0.164,0.1505,0.2685,0.24,0.182,0.237,0.072,-0.154,0.0115
-0.0545,-0.2005,-0.1465,0.1275,0.046,-0.174,0.1635,0.147,0.2655,0.239,0.1815,0.237,0.0725,-0.1555,0.0115
-0.052,-0.198,-0.146,0.125,0.0475,-0.1725,0.162,0.1435,0.263,0.235,0.178,0.2355,0.072,-0.1545,0.0125
-0.054,-0.198,-0.144,0.126,0.0455,-0.1715,0.158,0.1385,0.257,0.231,0.1755,0.23,0.071,-0.15,0.013
-0.062,-0.2065,-0.144,0.134,0.0415,-0.1755,0.158,0.136,0.254,0.2295,0.1745,0.2285,0.069,-0.1535,0.013
-0.061,-0.2065,-0.145,0.1335,0.0425,-0.176,0.158,0.136,0.2565,0.231,0.1755,0.2295,0.0685,-0.152,0.0135
-0.0585,-0.201,-0.1425,0.13,0.0425,-0.1725,0.1595,0.137,0.2565,0.232,0.1775,0.231,0.0695,-0.1505,0.013
-0.054,-0.1945,-0.1405,0.1245,0.0435,-0.168,0.1595,0.1355,0.254,0.2325,0.1785,0.2315,0.069,-0.1525,0.0125
-0.0495,-0.1895,-0.1405,0.1195,0.0455,-0.165,0.157,0.1325,0.253,0.232,0.177,0.23,0.0695,-0.147,0.0135
-0.0475,-0.1895,-0.1415,0.1185,0.0475,-0.1655,0.156,0.129,0.2505,0.23,0.176,0.2305,0.0705,-0.1445,0.0145
-0.048,-0.1905,-0.1425,0.1195,0.0475,-0.167,0.1555,0.128,0.249,0.2295,0.176,0.2305,0.07,-0.1425,0.015
-0.0535,-0.1935,-0.14,0.1235,0.0435,-0.167,0.1555,0.1275,0.248,0.23,0.1755,0.2295,0.0685,-0.1435,0.015
-0.0525,-0.1935,-0.141,0.123,0.0445,-0.1675,0.1545,0.126,0.2465,0.2285,0.1755,0.2285,0.069,-0.148,0.016
-0.051,-0.1905,-0.1395,0.1205,0.0445,-0.165,0.1535,0.125,0.247,0.2275,0.177,0.2295,0.068,-0.147,0.017
-0.056,-0.1905,-0.1345,0.123,0.0395,-0.163,0.1535,0.1225,0.244,0.227,0.1765,0.2305,0.069,-0.1455,0.017
-0.0585,-0.1925,-0.134,0.1255,0.038,-0.1635,0.154,0.1245,0.2445,0.227,0.177,0.2325,0.0705,-0.1465,0.0165
-0.059,-0.191,-0.1315,0.1255,0.0365,-0.1615,0.155,0.127,0.246,0.229,0.18,0.2345,0.07,-0.1445,0.0165
-0.062,-0.193,-0.131,0.1275,0.0345,-0.162,0.1535,0.1245,0.244,0.228,0.18,0.234,0.069,-0.146,0.0175
-0.063,-0.1945,-0.1315,0.1285,0.0345,-0.163,0.1515,0.1225,0.243,0.227,0.1785,0.2335,0.068,-0.1485,0.017
-0.0595,-0.1895,-0.13,0.1245,0.0355,-0.16,0.151,0.122,0.24,0.227,0.1795,0.2345,0.069,-0.146,0.017
-0.054,-0.1855,-0.1315,0.1195,0.039,-0.1585,0.15,0.1195,0.24,0.2255,0.18,0.235,0.0685,-0.146,0.0175
-0.0505,-0.183,-0.133,0.117,0.0415,-0.1585,0.1495,0.119,0.239,0.2245,0.1805,0.2345,0.0695,-0.141,0.017
-0.05,-0.1835,-0.1335,0.117,0.042,-0.159,0.15,0.118,0.2375,0.2235,0.18,0.2335,0.0705,-0.138,0.017
-0.051,-0.183,-0.132,0.117,0.041,-0.158,0.1495,0.1155,0.236,0.222,0.1785,0.233,0.0715,-0.138,0.0165
-0.052,-0.181,-0.129,0.1165,0.0385,-0.155,0.15,0.116,0.237,0.2225,0.18,0.2345,0.0725,-0.1365,0.018
-0.0545,-0.18,-0.126,0.1175,0.036,-0.1535,0.1495,0.115,0.2355,0.2225,0.1795,0.234,0.0725,-0.133,0.019
-0.0565,-0.1785,-0.1215,0.1175,0.033,-0.1505,0.15,0.115,0.236,0.2235,0.1795,0.2335,0.073,-0.129,0.018
-0.054,-0.1745,-0.1205,0.114,0.0335,-0.1475,0.1485,0.1135,0.2345,0.2225,0.179,0.234,0.074,-0.132,0.017
-0.054,-0.174,-0.1205,0.114,0.0335,-0.1475,0.1445,0.1105,0.2325,0.2215,0.1765,0.2335,0.0755,-0.1315,0.017
-0.056,-0.1785,-0.1225,0.1175,0.0335,-0.151,0.143,0.111,0.232,0.2195,0.1755,0.233,0.076,-0.1285,0.018
-0.058,-0.1865,-0.129,0.122,0.036,-0.1575,0.1455,0.1135,0.2335,0.221,0.177,0.2345,0.0755,-0.1355,0.018
-0.063,-0.188,-0.125,0.1255,0.0315,-0.157,0.1495,0.115,0.2375,0.224,0.1795,0.2385,0.076,-0.14,0.018
-0.0635,-0.1835,-0.12,0.1235,0.0285,-0.152,0.1495,0.115,0.236,0.2235,0.18,0.2375,0.075,-0.139,0.017
-0.0625,-0.183,-0.1205,0.123,0.0295,-0.152,0.1505,0.1155,0.2375,0.2235,0.1815,0.238,0.0745,-0.14,0.0175
-0.065,-0.1825,-0.118,0.124,0.0265,-0.1505,0.1505,0.114,0.2365,0.2215,0.1815,0.238,0.075,-0.1365,0.0175
-0.066,-0.184,-0.1185,0.125,0.0265,-0.1515,0.1485,0.114,0.236,0.222,0.1805,0.237,0.075,-0.1345,0.017
-0.067,-0.188,-0.121,0.1275,0.0275,-0.155,0.1475,0.114,0.235,0.2215,0.1785,0.2355,0.075,-0.133,0.0185
-0.065,-0.187,-0.122,0.126,0.0285,-0.155,0.1475,0.113,0.234,0.221,0.179,0.2345,0.074,-0.1335,0.017
-0.0625,-0.185,-0.1225,0.1235,0.0305,-0.154,0.1495,0.1155,0.236,0.2245,0.1825,0.2375,0.075,-0.1325,0.017
-0.062,-0.1825,-0.1205,0.122,0.0295,-0.1515,0.1505,0.116,0.2365,0.224,0.183,0.238,0.0745,-0.1295,0.0175
-0.0625,-0.1825,-0.1205,0.123,0.029,-0.152,0.1485,0.115,0.2355,0.2215,0.182,0.2365,0.073,-0.135,0.0165
-0.06,-0.1845,-0.1245,0.1225,0.032,-0.155,0.1465,0.114,0.234,0.2205,0.1805,0.2365,0.0735,-0.134,0.016
-0.0595,-0.186,-0.1265,0.123,0.034,-0.1565,0.1485,0.114,0.2345,0.222,0.1815,0.2355,0.073,-0.1345,0.0165
-0.058,-0.1835,-0.1255,0.1205,0.034,-0.1545,0.149,0.115,0.2355,0.222,0.182,0.2365,0.073,-0.136,0.0175
-0.058,-0.1785,-0.1205,0.118,0.0315,-0.1495,0.15,0.1155,0.2375,0.2225,0.1835,0.2375,0.0725,-0.1315,0.0165
-0.0605,-0.1755,-0.115,0.1185,0.0275,-0.1455,0.1505,0.1165,0.2375,0.2245,0.1835,0.2375,0.072,-0.1315,0.017
-0.055,-0.172,-0.117,0.1135,0.0315,-0.145,0.152,0.1175,0.239,0.227,0.186,0.24,0.073,-0.1335,0.016
-0.0555,-0.1705,-0.115,0.113,0.03,-0.143,0.154,0.1175,0.2405,0.2265,0.1875,0.2415,0.072,-0.1335,0.0145
-0.0595,-0.171,-0.1115,0.1155,0.026,-0.1415,0.1515,0.1165,0.2395,0.2245,0.185,0.24,0.073,-0.1325,0.0145
-0.0635,-0.173,-0.1095,0.1185,0.0235,-0.142,0.152,0.1155,0.2385,0.225,0.185,0.2395,0.0735,-0.132,0.014
-0.0755,-0.179,-0.1035,0.127,0.0145,-0.1415,0.1505,0.1145,0.238,0.223,0.1845,0.2385,0.0745,-0.13,0.014
-0.0855,-0.184,-0.0985,0.135,0.007,-0.142,0.1485,0.1135,0.2385,0.2215,0.184,0.239,0.075,-0.1305,0.0155
-0.0865,-0.187,-0.1005,0.1365,0.007,-0.144,0.147,0.112,0.237,0.221,0.183,0.2375,0.0745,-0.1285,0.0175
-0.079,-0.1845,-0.1055,0.132,0.0135,-0.1455,0.145,0.1105,0.2345,0.2195,0.1815,0.2355,0.075,-0.1265,0.0175
-0.069,-0.1805,-0.1115,0.1245,0.0215,-0.1465,0.1445,0.1105,0.234,0.2185,0.1805,0.235,0.0745,-0.13,0.017
-0.0585,-0.1745,-0.1155,0.1165,0.0285,-0.145,0.1435,0.11,0.233,0.218,0.1785,0.2345,0.0755,-0.127,0.0175
-0.0595,-0.1725,-0.113,0.116,0.027,-0.143,0.144,0.1095,0.2335,0.2185,0.178,0.235,0.076,-0.125,0.0175
-0.0685,-0.177,-0.1085,0.1225,0.02,-0.143,0.1445,0.1095,0.2335,0.2175,0.178,0.2345,0.0755,-0.125,0.0175
-0.0725,-0.1745,-0.102,0.1235,0.015,-0.1385,0.146,0.111,0.2355,0.218,0.179,0.237,0.0755,-0.1225,0.0165
-0.073,-0.172,-0.099,0.1225,0.013,-0.136,0.149,0.116,0.2395,0.221,0.1815,0.24,0.075,-0.1255,0.017
-0.0685,-0.1675,-0.099,0.118,0.0155,-0.1335,0.149,0.116,0.2385,0.2205,0.182,0.239,0.075,-0.126,0.016
-0.0635,-0.164,-0.1,0.114,0.0185,-0.1325,0.1485,0.1145,0.2385,0.22,0.1815,0.2385,0.0735,-0.1235,0.015
-0.059,-0.1645,-0.105,0.112,0.023,-0.135,0.1485,0.1155,0.2395,0.221,0.1825,0.2395,0.075,-0.1235,0.0165
-0.055,-0.161,-0.1065,0.108,0.026,-0.134,0.148,0.1155,0.24,0.2205,0.1825,0.24,0.0765,-0.119,0.016
-0.055,-0.164,-0.109,0.1095,0.027,-0.137,0.149,0.1155,0.238,0.219,0.181,0.2385,0.0765,-0.1175,0.0155
-0.063,-0.1705,-0.1075,0.117,0.0225,-0.139,0.1485,0.1145,0.2365,0.2175,0.181,0.2385,0.075,-0.12,0.016
-0.066,-0.1705,-0.105,0.1185,0.02,-0.1385,0.1485,0.1145,0.2365,0.2165,0.1795,0.238,0.0745,-0.117,0.0145
-0.0665,-0.171,-0.104,0.1185,0.019,-0.1375,0.147,0.1125,0.235,0.2145,0.178,0.2345,0.0735,-0.116,0.014
-0.0715,-0.1715,-0.1,0.1215,0.0145,-0.136,0.145,0.1125,0.235,0.214,0.1775,0.2355,0.0745,-0.1145,0.015
-0.073,-0.1735,-0.1005,0.123,0.014,-0.137,0.1455,0.1135,0.235,0.2145,0.179,0.236,0.076,-0.114,0.015
-0.0765,-0.1805,-0.104,0.1285,0.014,-0.1425,0.145,0.1115,0.235,0.2125,0.1775,0.232,0.074,-0.119,0.014
-0.0775,-0.181,-0.1035,0.1295,0.0135,-0.143,0.1455,0.1125,0.2345,0.212,0.176,0.232,0.0725,-0.119,0.0155
-0.071,-0.1725,-0.102,0.122,0.016,-0.1375,0.1475,0.1135,0.237,0.213,0.178,0.234,0.073,-0.1145,0.0155
-0.0705,-0.1735,-0.1035,0.122,0.017,-0.139,0.1475,0.1125,0.2375,0.213,0.1785,0.2335,0.0735,-0.1115,0.0145
-0.077,-0.1815,-0.104,0.129,0.0135,-0.143,0.145,0.11,0.235,0.211,0.177,0.2315,0.0745,-0.112,0.0145
-0.0695,-0.1705,-0.101,0.12,0.016,-0.136,0.1505,0.113,0.239,0.215,0.18,0.234,0.0735,-0.1125,0.012
-0.059,-0.161,-0.1015,0.11,0.0215,-0.1315,0.154,0.116,0.2415,0.219,0.1835,0.2365,0.073,-0.113,0.012
-0.06,-0.165,-0.105,0.1125,0.023,-0.135,0.154,0.1175,0.2415,0.2175,0.1835,0.2365,0.074,-0.117,0.013
-0.0625,-0.1665,-0.104,0.1145,0.021,-0.1355,0.1565,0.1195,0.2435,0.2195,0.183,0.239,0.073,-0.1195,0.012
-0.0575,-0.161,-0.1035,0.109,0.0235,-0.1325,0.158,0.1195,0.2435,0.22,0.183,0.2395,0.072,-0.119,0.0125
-0.0485,-0.1515,-0.103,0.1,0.0275,-0.1275,0.16,0.122,0.244,0.2215,0.1865,0.241,0.071,-0.12,0.011
-0.052,-0.1555,-0.103,0.1035,0.0255,-0.1295,0.1565,0.118,0.2415,0.2205,0.184,0.239,0.0715,-0.121,0.0115
-0.059,-0.1605,-0.101,0.11,0.021,-0.131,0.157,0.1185,0.241,0.2195,0.1825,0.239,0.0705,-0.118,0.0125
-0.0575,-0.1565,-0.099,0.107,0.021,-0.128,0.161,0.1215,0.242,0.222,0.1845,0.24,0.071,-0.111,0.0115
-0.062,-0.158,-0.0965,0.11,0.0175,-0.1275,0.1575,0.119,0.2405,0.22,0.183,0.239,0.0725,-0.107,0.012
-0.072,-0.1635,-0.0915,0.1175,0.0105,-0.1275,0.1565,0.119,0.2415,0.22,0.1845,0.24,0.074,-0.107,0.013
-0.0765,-0.168,-0.092,0.1225,0.008,-0.1305,0.157,0.119,0.239,0.219,0.1835,0.2385,0.073,-0.108,0.0115
-0.0745,-0.1695,-0.095,0.122,0.0105,-0.1325,0.1535,0.117,0.2355,0.215,0.1805,0.236,0.072,-0.1085,0.0105
-0.062,-0.16,-0.098,0.111,0.018,-0.129,0.1515,0.1145,0.2345,0.2135,0.1805,0.236,0.0725,-0.1055,0.0095
-0.058,-0.1535,-0.0955,0.1055,0.019,-0.125,0.154,0.116,0.235,0.215,0.1805,0.2365,0.0725,-0.104,0.0085
-0.06,-0.1525,-0.092,0.1065,0.016,-0.1225,0.156,0.117,0.2365,0.216,0.181,0.2375,0.072,-0.1055,0.009
-0.059,-0.1485,-0.0895,0.1035,0.0155,-0.1195,0.157,0.118,0.237,0.217,0.181,0.238,0.0715,-0.105,0.0095
-0.0615,-0.149,-0.0875,0.105,0.0135,-0.1185,0.1565,0.1185,0.237,0.217,0.1805,0.237,0.072,-0.1045,0.009
-0.064,-0.1505,-0.0865,0.1075,0.0115,-0.1185,0.1555,0.1165,0.235,0.2145,0.179,0.235,0.0705,-0.1075,0.009
-0.062,-0.1505,-0.0885,0.106,0.0135,-0.1195,0.156,0.1175,0.235,0.2145,0.1795,0.2345,0.069,-0.109,0.0085
-0.0585,-0.146,-0.088,0.1025,0.015,-0.117,0.1565,0.118,0.2345,0.215,0.179,0.2355,0.069,-0.1065,0.007
-0.0625,-0.1495,-0.087,0.106,0.0125,-0.1185,0.1565,0.119,0.2345,0.214,0.1785,0.235,0.0685,-0.1065,0.0075
-0.0625,-0.158,-0.0955,0.11,0.017,-0.127,0.16,0.121,0.237,0.2145,0.1815,0.238,0.0685,-0.107,0.0085
-0.063,-0.1615,-0.0985,0.112,0.018,-0.1305,0.1595,0.122,0.236,0.215,0.1815,0.238,0.0685,-0.11,0.0085
-0.0665,-0.16,-0.094,0.113,0.014,-0.1275,0.1565,0.119,0.234,0.214,0.18,0.2355,0.0685,-0.1085,0.009
-0.0605,-0.152,-0.0915,0.1065,0.016,-0.122,0.157,0.1175,0.233,0.2125,0.179,0.2355,0.069,-0.107,0.009
-0.059,-0.152,-0.0935,0.1055,0.0175,-0.123,0.1575,0.119,0.233,0.2115,0.177,0.235,0.069,-0.1055,0.009
-0.06,-0.1505,-0.0905,0.1055,0.0155,-0.121,0.157,0.1175,0.231,0.2115,0.1775,0.236,0.07,-0.103,0.0085
-0.061,-0.149,-0.088,0.105,0.014,-0.1185,0.1565,0.1165,0.2285,0.2095,0.1765,0.2345,0.069,-0.106,0.0085
-0.0605,-0.1465,-0.086,0.1035,0.013,-0.1165,0.1565,0.1165,0.2285,0.2095,0.1755,0.2335,0.0685,-0.104,0.0075
-0.0575,-0.143,-0.0855,0.1005,0.0145,-0.1145,0.155,0.117,0.2305,0.21,0.176,0.2345,0.0685,-0.105,0.009
-0.059,-0.1475,-0.088,0.103,0.015,-0.118,0.155,0.1175,0.2305,0.2095,0.176,0.233,0.0685,-0.1045,0.008
-0.0575,-0.148,-0.09,0.103,0.0165,-0.119,0.1575,0.1185,0.2305,0.2105,0.178,0.2335,0.068,-0.103,0.007
-0.0525,-0.1475,-0.0945,0.1,0.021,-0.1215,0.16,0.122,0.2335,0.2115,0.18,0.2375,0.068,-0.108,0.009
-0.058,-0.146,-0.088,0.102,0.0155,-0.1175,0.1615,0.122,0.234,0.2115,0.179,0.237,0.0675,-0.1065,0.009
-0.064,-0.149,-0.085,0.1065,0.0105,-0.117,0.1625,0.121,0.2325,0.211,0.1765,0.2355,0.066,-0.1085,0.0085
-0.0625,-0.1505,-0.088,0.1065,0.013,-0.1195,0.161,0.1215,0.233,0.2115,0.1765,0.237,0.067,-0.1145,0.0105
-0.0595,-0.1475,-0.0885,0.1035,0.0145,-0.118,0.16,0.122,0.2325,0.2105,0.1765,0.236,0.0675,-0.114,0.012
-0.055,-0.147,-0.092,0.101,0.019,-0.12,0.1585,0.119,0.231,0.208,0.175,0.2345,0.0665,-0.1125,0.0115
-0.055,-0.15,-0.095,0.1025,0.02,-0.123,0.1585,0.1165,0.23,0.207,0.1735,0.232,0.0655,-0.1095,0.0115
-0.054,-0.1515,-0.0975,0.1025,0.022,-0.1245,0.159,0.1155,0.2285,0.2055,0.173,0.232,0.0655,-0.105,0.01
-0.0515,-0.146,-0.0945,0.099,0.0215,-0.1205,0.1575,0.1145,0.2265,0.205,0.1735,0.234,0.067,-0.103,0.01
-0.0565,-0.1465,-0.09,0.1015,0.0165,-0.1185,0.1575,0.116,0.227,0.205,0.175,0.2355,0.068,-0.1025,0.0105
-0.0595,-0.149,-0.089,0.104,0.015,-0.1195,0.1585,0.116,0.227,0.206,0.175,0.237,0.069,-0.105,0.0105
-0.0595,-0.1485,-0.0885,0.104,0.0145,-0.119,0.158,0.1145,0.2255,0.2055,0.173,0.2365,0.069,-0.105,0.011
-0.059,-0.147,-0.088,0.103,0.0145,-0.118,0.157,0.1125,0.224,0.2025,0.171,0.2355,0.0695,-0.103,0.0105
-0.0565,-0.1445,-0.088,0.1005,0.016,-0.1165,0.156,0.111,0.2215,0.201,0.17,0.233,0.0685,-0.102,0.0105
-0.058,-0.1475,-0.0895,0.1025,0.016,-0.1185,0.1555,0.111,0.2195,0.2005,0.17,0.2315,0.0665,-0.1015,0.009
-0.058,-0.1485,-0.09,0.103,0.0165,-0.1195,0.1565,0.111,0.2185,0.2005,0.169,0.2315,0.066,-0.1025,0.0085
-0.059,-0.147,-0.0875,0.103,0.0145,-0.1175,0.157,0.109,0.2175,0.2005,0.1675,0.2295,0.0645,-0.1055,0.009
-0.0605,-0.1465,-0.0855,0.1035,0.013,-0.116,0.156,0.1075,0.217,0.1985,0.167,0.2295,0.066,-0.1075,0.011
-0.0595,-0.1455,-0.086,0.1025,0.0135,-0.1165,0.1585,0.109,0.2175,0.199,0.1665,0.2305,0.065,-0.104,0.0115
-0.0565,-0.1445,-0.088,0.1005,0.016,-0.1165,0.158,0.1075,0.216,0.198,0.1655,0.228,0.063,-0.102,0.01
-0.0535,-0.144,-0.0905,0.099,0.0185,-0.1175,0.157,0.106,0.2145,0.1955,0.163,0.2265,0.063,-0.1055,0.0095
-0.054,-0.144,-0.09,0.0995,0.018,-0.1175,0.156,0.1055,0.2145,0.197,0.1635,0.2255,0.063,-0.106,0.01
-0.0555,-0.146,-0.0905,0.101,0.0175,-0.1185,0.1555,0.104,0.215,0.1965,0.164,0.2235,0.0625,-0.1085,0.0095
-0.0605,-0.1485,-0.088,0.1045,0.014,-0.1185,0.1585,0.1045,0.2155,0.196,0.1645,0.225,0.0615,-0.1095,0.009
-0.0635,-0.1515,-0.088,0.1075,0.0125,-0.12,0.1585,0.1045,0.214,0.196,0.1645,0.2245,0.0605,-0.107,0.008
-0.0655,-0.155,-0.0895,0.1105,0.012,-0.1225,0.1575,0.1035,0.2135,0.193,0.163,0.2235,0.059,-0.1095,0.0085
-0.0685,-0.154,-0.0855,0.1115,0.0085,-0.12,0.159,0.1035,0.213,0.1925,0.163,0.225,0.0595,-0.1095,0.0095
-0.067,-0.1515,-0.085,0.109,0.0095,-0.1185,0.1615,0.105,0.214,0.1935,0.1635,0.226,0.059,-0.1075,0.009
-0.063,-0.1485,-0.0855,0.106,0.0115,-0.117,0.162,0.105,0.214,0.1945,0.1635,0.2265,0.0595,-0.1065,0.011
-0.0625,-0.148,-0.086,0.1055,0.012,-0.117,0.161,0.106,0.2145,0.1945,0.163,0.2265,0.0605,-0.109,0.011
-0.0675,-0.153,-0.0855,0.1105,0.009,-0.1195,0.161,0.105,0.214,0.192,0.162,0.227,0.0605,-0.1085,0.0105
-0.0735,-0.1595,-0.086,0.1165,0.0065,-0.123,0.158,0.103,0.2105,0.1905,0.1595,0.2245,0.06,-0.108,0.0095
-0.0665,-0.1515,-0.085,0.109,0.0095,-0.1185,0.1575,0.1035,0.2105,0.1895,0.161,0.2255,0.061,-0.11,0.0095
-0.0615,-0.1455,-0.0845,0.1035,0.0115,-0.115,0.159,0.103,0.21,0.1905,0.1625,0.2275,0.062,-0.1055,0.01
-0.0625,-0.1495,-0.087,0.106,0.0125,-0.1185,0.159,0.101,0.208,0.1895,0.1615,0.228,0.0615,-0.104,0.01
-0.063,-0.1495,-0.0865,0.106,0.012,-0.118,0.158,0.0985,0.206,0.187,0.1595,0.227,0.0615,-0.106,0.0095
-0.067,-0.1535,-0.0865,0.11,0.01,-0.12,0.157,0.097,0.2055,0.186,0.159,0.226,0.0625,-0.109,0.0105
-0.0635,-0.1485,-0.085,0.106,0.011,-0.117,0.158,0.098,0.2075,0.1875,0.161,0.2275,0.063,-0.1095,0.0125
-0.0655,-0.1475,-0.082,0.1065,0.0085,-0.115,0.159,0.099,0.2085,0.189,0.162,0.227,0.0615,-0.107,0.011
-0.0655,-0.15,-0.084,0.1075,0.0095,-0.1175,0.1575,0.098,0.2065,0.1875,0.1605,0.2255,0.062,-0.109,0.0115
-0.0605,-0.1465,-0.086,0.104,0.013,-0.1165,0.157,0.097,0.205,0.187,0.16,0.2245,0.063,-0.109,0.0115
-0.059,-0.1435,-0.0845,0.101,0.013,-0.1145,0.1575,0.098,0.2065,0.1885,0.162,0.2255,0.062,-0.1045,0.01
-0.0595,-0.1465,-0.087,0.103,0.014,-0.1165,0.1595,0.099,0.2075,0.19,0.163,0.226,0.0595,-0.106,0.009
-0.059,-0.1485,-0.0895,0.1035,0.0155,-0.119,0.1615,0.101,0.21,0.192,0.166,0.2295,0.0615,-0.1095,0.01
-0.0545,-0.1445,-0.09,0.0995,0.018,-0.1175,0.1625,0.1005,0.21,0.1925,0.167,0.2315,0.0635,-0.1075,0.0115
-0.0585,-0.147,-0.0885,0.103,0.015,-0.118,0.1635,0.098,0.208,0.1905,0.165,0.231,0.0615,-0.1085,0.013
-0.0605,-0.1485,-0.088,0.1045,0.014,-0.1185,0.1625,0.0975,0.208,0.1895,0.164,0.23,0.062,-0.1115,0.0145
-0.063,-0.153,-0.09,0.108,0.014,-0.1215,0.162,0.096,0.206,0.1885,0.1635,0.227,0.06,-0.109,0.013
-0.0635,-0.156,-0.092,0.1095,0.0145,-0.124,0.1605,0.095,0.2045,0.186,0.161,0.227,0.06,-0.1085,0.014
-0.065,-0.156,-0.091,0.1105,0.0135,-0.124,0.1615,0.097,0.2055,0.187,0.1615,0.2285,0.0615,-0.11,0.0135
-0.073,-0.1575,-0.085,0.1155,0.0065,-0.1215,0.165,0.0985,0.2075,0.1895,0.1665,0.2315,0.0605,-0.1125,0.013
-0.078,-0.1595,-0.0815,0.1185,0.002,-0.1205,0.165,0.0975,0.2075,0.1895,0.1655,0.232,0.0605,-0.1135,0.0135
-0.08,-0.16,-0.08,0.1195,0.0005,-0.12,0.1635,0.096,0.2065,0.1885,0.1635,0.229,0.0605,-0.1175,0.012
-0.0715,-0.157,-0.086,0.114,0.0075,-0.1215,0.16,0.0935,0.204,0.187,0.162,0.2265,0.062,-0.1155,0.012
-0.0595,-0.1565,-0.0965,0.108,0.0185,-0.1265,0.1565,0.0905,0.2005,0.1835,0.159,0.2245,0.0625,-0.1155,0.011
-0.0565,-0.1545,-0.098,0.1055,0.021,-0.1265,0.156,0.0885,0.1995,0.183,0.158,0.223,0.0615,-0.116,0.012
-0.0545,-0.152,-0.0975,0.1035,0.0215,-0.125,0.156,0.0895,0.1995,0.184,0.157,0.223,0.0625,-0.1105,0.0135
-0.0565,-0.1525,-0.096,0.1045,0.02,-0.1245,0.158,0.0885,0.2,0.184,0.1595,0.2235,0.062,-0.1135,0.0155
-0.0635,-0.1555,-0.092,0.1095,0.0145,-0.124,0.1585,0.0885,0.2005,0.184,0.1605,0.223,0.0605,-0.1145,0.0155
-0.063,-0.155,-0.092,0.109,0.015,-0.1235,0.1595,0.09,0.1995,0.1835,0.1585,0.2235,0.06,-0.1185,0.0145
-0.062,-0.1565,-0.0945,0.1095,0.0165,-0.126,0.1575,0.0865,0.1965,0.18,0.156,0.221,0.06,-0.117,0.015
-0.0635,-0.159,-0.096,0.1115,0.0165,-0.1275,0.154,0.0855,0.196,0.1795,0.154,0.2195,0.0615,-0.1105,0.014
-0.0585,-0.1565,-0.098,0.1075,0.02,-0.1275,0.1545,0.088,0.197,0.18,0.154,0.221,0.0635,-0.1115,0.0155
-0.0605,-0.1555,-0.095,0.108,0.0175,-0.1255,0.158,0.089,0.197,0.1825,0.156,0.222,0.062,-0.1115,0.0155
-0.066,-0.1595,-0.0935,0.1125,0.014,-0.1265,0.156,0.086,0.1945,0.1815,0.155,0.2195,0.0615,-0.1135,0.016
-0.069,-0.1655,-0.0965,0.1175,0.014,-0.131,0.1535,0.083,0.1925,0.18,0.154,0.2195,0.0615,-0.1175,0.017
-0.074,-0.165,-0.091,0.1195,0.009,-0.128,0.1555,0.084,0.1935,0.181,0.156,0.221,0.0615,-0.11,0.0145
-0.073,-0.166,-0.0925,0.1195,0.01,-0.1295,0.1555,0.0835,0.192,0.179,0.1555,0.2195,0.0615,-0.107,0.0135
-0.0725,-0.167,-0.0945,0.12,0.0115,-0.131,0.155,0.083,0.1915,0.18,0.157,0.2215,0.063,-0.1125,0.016
-0.0745,-0.164,-0.0895,0.1195,0.0075,-0.127,0.1565,0.083,0.1935,0.1815,0.1585,0.2245,0.0635,-0.1125,0.0155
-0.071,-0.1615,-0.0905,0.116,0.01,-0.1265,0.1615,0.0865,0.196,0.1835,0.1605,0.2275,0.0625,-0.1135,0.0135
-0.074,-0.168,-0.094,0.121,0.01,-0.131,0.158,0.084,0.1915,0.1805,0.158,0.2255,0.0635,-0.1085,0.014
-0.0725,-0.167,-0.094,0.12,0.011,-0.131,0.155,0.08,0.189,0.178,0.155,0.222,0.0615,-0.103,0.0125
-0.063,-0.1565,-0.0935,0.11,0.0155,-0.1255,0.158,0.0805,0.19,0.179,0.1555,0.2225,0.061,-0.1005,0.0125
-0.0625,-0.157,-0.095,0.1095,0.0165,-0.1265,0.1565,0.08,0.1885,0.178,0.155,0.222,0.0625,-0.108,0.0135
-0.0655,-0.1635,-0.098,0.1145,0.0165,-0.131,0.1585,0.0825,0.189,0.1785,0.1555,0.2225,0.0605,-0.114,0.013
-0.075,-0.174,-0.0985,0.1245,0.012,-0.1365,0.1585,0.08,0.188,0.176,0.1545,0.221,0.0595,-0.115,0.014
-0.076,-0.1725,-0.097,0.1245,0.011,-0.135,0.156,0.079,0.187,0.175,0.153,0.22,0.0605,-0.1225,0.014
-0.0655,-0.163,-0.0975,0.114,0.0165,-0.1305,0.156,0.0795,0.187,0.176,0.1535,0.2195,0.0595,-0.117,0.013
-0.064,-0.1585,-0.0945,0.111,0.0155,-0.1265,0.1575,0.079,0.188,0.176,0.1535,0.219,0.0585,-0.1175,0.015
-0.063,-0.155,-0.092,0.109,0.0145,-0.124,0.1575,0.0785,0.189,0.176,0.1525,0.2195,0.0585,-0.121,0.017
-0.0625,-0.153,-0.0905,0.1075,0.0145,-0.122,0.1575,0.078,0.1875,0.176,0.152,0.219,0.0585,-0.1165,0.017
-0.065,-0.155,-0.0895,0.11,0.0125,-0.1225,0.156,0.0765,0.1865,0.1755,0.15,0.2175,0.059,-0.115,0.017
-0.0645,-0.154,-0.0895,0.1095,0.013,-0.1225,0.155,0.0745,0.1845,0.1735,0.148,0.2145,0.058,-0.111,0.0165
-0.0625,-0.15,-0.0875,0.1065,0.013,-0.119,0.158,0.0755,0.187,0.174,0.1505,0.215,0.0565,-0.11,0.017
-0.0605,-0.1475,-0.087,0.104,0.0135,-0.1175,0.158,0.076,0.189,0.1755,0.153,0.219,0.0595,-0.105,0.019
-0.057,-0.144,-0.0875,0.1005,0.0155,-0.116,0.159,0.076,0.189,0.1775,0.153,0.2185,0.06,-0.1065,0.019
-0.054,-0.142,-0.0885,0.098,0.0175,-0.1155,0.161,0.0785,0.191,0.179,0.1555,0.2215,0.062,-0.111,0.019
-0.055,-0.144,-0.089,0.0995,0.017,-0.117,0.159,0.0795,0.1925,0.179,0.157,0.2235,0.064,-0.1105,0.0195
-0.0575,-0.1465,-0.089,0.102,0.016,-0.118,0.16,0.0795,0.1925,0.179,0.1565,0.222,0.0635,-0.1135,0.0195
-0.0615,-0.1485,-0.0875,0.105,0.013,-0.1185,0.1615,0.079,0.192,0.1805,0.1565,0.223,0.064,-0.1115,0.0195
-0.0675,-0.152,-0.084,0.1095,0.0085,-0.118,0.1625,0.0795,0.193,0.182,0.1575,0.223,0.062,-0.109,0.019
-0.0715,-0.1525,-0.0815,0.112,0.005,-0.117,0.162,0.0795,0.1915,0.182,0.158,0.223,0.062,-0.1115,0.019
-0.068,-0.151,-0.083,0.1095,0.008,-0.1175,0.1585,0.0775,0.1895,0.18,0.157,0.221,0.063,-0.107,0.0195
-0.066,-0.1545,-0.0885,0.11,0.0115,-0.1215,0.1575,0.0755,0.188,0.179,0.155,0.22,0.0635,-0.107,0.019
-0.0655,-0.1585,-0.0935,0.112,0.014,-0.126,0.155,0.0745,0.186,0.177,0.1535,0.2175,0.064,-0.1125,0.0185
-0.06,-0.156,-0.096,0.108,0.0185,-0.126,0.152,0.074,0.1835,0.176,0.151,0.215,0.064,-0.1125,0.019
-0.06,-0.152,-0.092,0.106,0.016,-0.122,0.15,0.0705,0.18,0.1745,0.1475,0.211,0.061,-0.1105,0.0175
-0.062,-0.148,-0.086,0.105,0.012,-0.117,0.1485,0.0695,0.1795,0.1715,0.1475,0.209,0.0595,-0.1035,0.0175
-0.0635,-0.1495,-0.086,0.1065,0.0115,-0.118,0.1485,0.068,0.179,0.1705,0.1465,0.2095,0.059,-0.1025,0.017
-0.0645,-0.1515,-0.087,0.1075,0.0115,-0.1195,0.1485,0.0655,0.1765,0.169,0.1455,0.2065,0.0565,-0.106,0.016
-0.061,-0.148,-0.087,0.1045,0.013,-0.118,0.1485,0.0645,0.1765,0.17,0.1465,0.2065,0.057,-0.107,0.016
-0.0585,-0.149,-0.0905,0.104,0.016,-0.12,0.1475,0.063,0.175,0.169,0.1465,0.2045,0.055,-0.108,0.0155
-0.064,-0.1505,-0.086,0.107,0.011,-0.1185,0.151,0.062,0.1765,0.1695,0.147,0.204,0.052,-0.1115,0.015
-0.065,-0.151,-0.086,0.108,0.011,-0.119,0.153,0.0635,0.1775,0.1695,0.1475,0.2075,0.0515,-0.109,0.0155
-0.0655,-0.1515,-0.086,0.1085,0.0105,-0.119,0.1525,0.063,0.1765,0.17,0.149,0.209,0.052,-0.106,0.015
-0.068,-0.151,-0.0825,0.1095,0.0075,-0.117,0.1555,0.0645,0.179,0.174,0.1515,0.211,0.0525,-0.1085,0.017
-0.063,-0.1485,-0.085,0.106,0.011,-0.117,0.156,0.065,0.18,0.173,0.15,0.2125,0.054,-0.106,0.0175
-0.069,-0.1505,-0.0815,0.1095,0.0065,-0.1165,0.157,0.066,0.181,0.172,0.15,0.2135,0.053,-0.11,0.016
-0.07,-0.155,-0.085,0.1125,0.0075,-0.12,0.1585,0.068,0.1825,0.1735,0.1505,0.2165,0.052,-0.1105,0.016
-0.067,-0.1565,-0.0895,0.1115,0.0115,-0.123,0.159,0.0685,0.183,0.174,0.149,0.2175,0.0525,-0.1125,0.015
-0.069,-0.1605,-0.0915,0.115,0.0115,-0.1265,0.16,0.067,0.1815,0.1725,0.149,0.2175,0.053,-0.114,0.0175
-0.067,-0.1605,-0.0935,0.1135,0.0135,-0.127,0.1585,0.0645,0.178,0.17,0.148,0.216,0.052,-0.111,0.0165
-0.0635,-0.1575,-0.094,0.11,0.0155,-0.126,0.1585,0.0645,0.177,0.1705,0.147,0.2145,0.0505,-0.1135,0.0155
-0.062,-0.155,-0.093,0.1085,0.0155,-0.1245,0.159,0.0645,0.178,0.1725,0.149,0.215,0.0505,-0.111,0.0155
-0.058,-0.151,-0.0925,0.1045,0.0175,-0.122,0.159,0.0665,0.179,0.1745,0.1505,0.2155,0.052,-0.1085,0.0135
-0.057,-0.1545,-0.0975,0.106,0.0205,-0.126,0.157,0.066,0.1785,0.172,0.149,0.215,0.0535,-0.107,0.013
-0.0615,-0.158,-0.0965,0.1095,0.018,-0.1275,0.156,0.064,0.1765,0.1705,0.149,0.2125,0.052,-0.108,0.0135
-0.07,-0.1615,-0.091,0.1155,0.011,-0.1265,0.156,0.0625,0.1755,0.1685,0.147,0.2115,0.0515,-0.109,0.0155
-0.078,-0.1685,-0.09,0.123,0.0065,-0.1295,0.1545,0.0595,0.1715,0.164,0.144,0.21,0.052,-0.1105,0.0155
-0.0705,-0.1605,-0.09,0.1155,0.01,-0.1255,0.1555,0.061,0.173,0.1655,0.146,0.211,0.053,-0.1125,0.0145
-0.0615,-0.153,-0.092,0.1075,0.0155,-0.123,0.156,0.061,0.1755,0.167,0.1465,0.2125,0.053,-0.11,0.0155
-0.0655,-0.1585,-0.093,0.112,0.014,-0.126,0.1565,0.0615,0.174,0.166,0.1455,0.2135,0.0525,-0.1075,0.016
-0.073,-0.162,-0.089,0.1175,0.0085,-0.126,0.156,0.062,0.173,0.1665,0.1465,0.2135,0.054,-0.1085,0.0175
-0.0725,-0.1595,-0.087,0.116,0.0075,-0.1235,0.1555,0.0595,0.172,0.1655,0.1465,0.212,0.0535,-0.1085,0.017
-0.071,-0.159,-0.088,0.115,0.0085,-0.1235,0.1565,0.0615,0.173,0.1645,0.147,0.214,0.054,-0.109,0.017
-0.0675,-0.1585,-0.091,0.113,0.012,-0.125,0.156,0.061,0.1735,0.163,0.1455,0.213,0.0535,-0.108,0.0175
-0.0615,-0.155,-0.0935,0.108,0.016,-0.1245,0.1545,0.0595,0.172,0.162,0.1445,0.2115,0.055,-0.1075,0.0195
-0.0615,-0.153,-0.091,0.107,0.015,-0.122,0.156,0.0605,0.173,0.1645,0.1455,0.2105,0.055,-0.1105,0.02
-0.0585,-0.1485,-0.09,0.1035,0.016,-0.1195,0.16,0.064,0.177,0.1675,0.148,0.2135,0.055,-0.1145,0.019
-0.06,-0.1485,-0.0885,0.104,0.015,-0.119,0.1605,0.065,0.178,0.1695,0.151,0.216,0.056,-0.1155,0.0195
-0.0635,-0.15,-0.0865,0.1065,0.012,-0.118,0.16,0.064,0.178,0.1695,0.152,0.214,0.055,-0.1135,0.0195
-0.057,-0.144,-0.0875,0.1005,0.0155,-0.116,0.1565,0.063,0.177,0.1675,0.1515,0.213,0.056,-0.1085,0.0185
-0.0575,-0.1485,-0.091,0.103,0.017,-0.12,0.155,0.0615,0.175,0.1655,0.1495,0.2105,0.0565,-0.107,0.0175
-0.0645,-0.155,-0.0905,0.11,0.013,-0.123,0.1575,0.0625,0.1765,0.166,0.151,0.2105,0.055,-0.1135,0.018
-0.0675,-0.1535,-0.086,0.1105,0.0095,-0.12,0.1545,0.063,0.1755,0.1675,0.151,0.2115,0.057,-0.111,0.0185
-0.068,-0.153,-0.085,0.1105,0.0085,-0.1195,0.1545,0.0635,0.177,0.168,0.152,0.2135,0.059,-0.1055,0.0165
-0.061,-0.1485,-0.0875,0.105,0.0135,-0.118,0.157,0.0635,0.18,0.1715,0.156,0.2185,0.06,-0.1085,0.016
-0.0595,-0.147,-0.0875,0.103,0.0145,-0.1175,0.1565,0.064,0.178,0.174,0.156,0.2185,0.061,-0.111,0.0165
-0.0635,-0.1485,-0.085,0.106,0.011,-0.117,0.1555,0.0635,0.179,0.172,0.156,0.2185,0.0615,-0.1095,0.0175
-0.0635,-0.149,-0.0855,0.1065,0.0115,-0.1175,0.155,0.0625,0.1795,0.1725,0.1565,0.219,0.0615,-0.113,0.017
-0.0635,-0.1475,-0.084,0.1055,0.0105,-0.116,0.158,0.063,0.18,0.173,0.1575,0.2205,0.0605,-0.1155,0.0165
-0.067,-0.1445,-0.078,0.106,0.0055,-0.1115,0.158,0.0635,0.1805,0.172,0.157,0.2225,0.0605,-0.114,0.0165
-0.065,-0.1395,-0.0745,0.1025,0.005,-0.107,0.1595,0.065,0.182,0.175,0.1595,0.222,0.061,-0.113,0.017
-0.064,-0.1375,-0.0735,0.1005,0.005,-0.1055,0.162,0.0665,0.1835,0.1765,0.1615,0.2235,0.0615,-0.111,0.0175
-0.0645,-0.1385,-0.0735,0.1015,0.005,-0.106,0.16,0.0645,0.1825,0.174,0.159,0.2205,0.0605,-0.109,0.0175
-0.0555,-0.1405,-0.085,0.098,0.015,-0.113,0.159,0.0625,0.1795,0.1725,0.157,0.217,0.059,-0.112,0.017
-0.0565,-0.154,-0.0975,0.105,0.0205,-0.126,0.156,0.0605,0.177,0.1705,0.154,0.214,0.059,-0.1155,0.0155
-0.068,-0.1625,-0.095,0.115,0.014,-0.129,0.1525,0.058,0.1745,0.168,0.152,0.212,0.06,-0.117,0.017
-0.0715,-0.165,-0.0935,0.1185,0.011,-0.1295,0.1565,0.0595,0.177,0.17,0.156,0.2155,0.059,-0.1175,0.0175
-0.0635,-0.1635,-0.1,0.1135,0.0185,-0.132,0.1605,0.0625,0.181,0.174,0.159,0.2185,0.0595,-0.117,0.015
-0.061,-0.161,-0.1,0.111,0.0195,-0.131,0.16,0.0625,0.181,0.174,0.157,0.2215,0.061,-0.1185,0.016
-0.063,-0.163,-0.1,0.113,0.019,-0.1315,0.158,0.0605,0.1785,0.171,0.154,0.219,0.058,-0.1185,0.0165
-0.056,-0.159,-0.103,0.1075,0.0235,-0.131,0.1565,0.06,0.1765,0.1695,0.153,0.216,0.058,-0.12,0.0155
-0.054,-0.155,-0.101,0.1045,0.0235,-0.1285,0.16,0.062,0.1805,0.1705,0.154,0.2175,0.058,-0.1245,0.0155
-0.0585,-0.157,-0.098,0.1075,0.02,-0.1275,0.16,0.062,0.1815,0.171,0.1525,0.217,0.057,-0.1225,0.017
-0.062,-0.1555,-0.0935,0.109,0.016,-0.125,0.1585,0.061,0.18,0.1715,0.152,0.2165,0.058,-0.1225,0.0185
-0.0665,-0.157,-0.091,0.112,0.0125,-0.1245,0.1565,0.06,0.1785,0.17,0.1495,0.2145,0.056,-0.1245,0.021
-0.071,-0.164,-0.093,0.1175,0.0115,-0.129,0.151,0.054,0.172,0.163,0.1455,0.21,0.0555,-0.116,0.021
-0.0705,-0.163,-0.0925,0.117,0.0115,-0.128,0.152,0.0525,0.171,0.1625,0.145,0.21,0.0545,-0.1115,0.019
-0.069,-0.1575,-0.0885,0.1135,0.01,-0.1235,0.1565,0.0565,0.174,0.1655,0.146,0.2115,0.0525,-0.118,0.02
-0.0695,-0.1585,-0.089,0.114,0.01,-0.124,0.1545,0.0555,0.1725,0.1655,0.146,0.2115,0.0535,-0.118,0.02
-0.07,-0.1615,-0.0915,0.116,0.011,-0.127,0.1545,0.0555,0.173,0.167,0.147,0.213,0.055,-0.114,0.02
-0.066,-0.1555,-0.09,0.111,0.012,-0.123,0.1575,0.059,0.1775,0.1695,0.15,0.2145,0.054,-0.1115,0.02
-0.066,-0.155,-0.089,0.1105,0.0115,-0.1225,0.1575,0.061,0.1775,0.17,0.15,0.214,0.053,-0.1135,0.0205
-0.0675,-0.1565,-0.089,0.112,0.011,-0.123,0.159,0.061,0.1785,0.1705,0.151,0.2155,0.054,-0.118,0.0205
-0.068,-0.1605,-0.0925,0.1145,0.0125,-0.127,0.1575,0.06,0.178,0.17,0.149,0.2135,0.0535,-0.1165,0.0205
-0.072,-0.168,-0.0955,0.12,0.012,-0.132,0.1555,0.0605,0.177,0.169,0.1475,0.2125,0.0535,-0.1225,0.022
-0.073,-0.1665,-0.0935,0.1195,0.0105,-0.13,0.1565,0.0605,0.1785,0.1705,0.1485,0.2145,0.0555,-0.124,0.023
-0.0745,-0.171,-0.0965,0.123,0.0115,-0.134,0.154,0.057,0.1755,0.1675,0.1455,0.2125,0.0555,-0.1195,0.023
-0.077,-0.1735,-0.096,0.1255,0.0095,-0.135,0.1535,0.0585,0.175,0.168,0.146,0.211,0.0545,-0.121,0.022
-0.0755,-0.17,-0.0945,0.1225,0.01,-0.1325,0.154,0.0585,0.177,0.1695,0.1475,0.2105,0.055,-0.125,0.0225
-0.074,-0.1665,-0.0925,0.1205,0.0095,-0.13,0.155,0.0605,0.178,0.1715,0.149,0.2145,0.0585,-0.1285,0.022
-0.0815,-0.1685,-0.087,0.125,0.003,-0.128,0.1545,0.0605,0.178,0.1725,0.151,0.215,0.0585,-0.123,0.021
-0.084,-0.1725,-0.088,0.1285,0.0025,-0.1305,0.152,0.057,0.176,0.17,0.15,0.212,0.0565,-0.1255,0.0215
-0.076,-0.167,-0.0915,0.1215,0.008,-0.1295,0.1535,0.057,0.1755,0.169,0.1495,0.213,0.0565,-0.1245,0.0195
-0.0725,-0.1615,-0.089,0.117,0.0085,-0.1255,0.156,0.0585,0.1785,0.171,0.1505,0.214,0.057,-0.1185,0.0185
-0.069,-0.157,-0.088,0.113,0.01,-0.1225,0.159,0.06,0.18,0.172,0.151,0.2155,0.0565,-0.121,0.02
-0.0645,-0.1575,-0.093,0.111,0.0145,-0.1255,0.159,0.059,0.179,0.171,0.15,0.2135,0.0535,-0.119,0.0175
-0.064,-0.158,-0.094,0.111,0.0155,-0.1265,0.156,0.0585,0.177,0.17,0.1475,0.2115,0.0525,-0.1165,0.0165
-0.063,-0.1575,-0.0945,0.11,0.016,-0.1265,0.1555,0.056,0.176,0.1675,0.145,0.21,0.053,-0.1155,0.0165
-0.0645,-0.1615,-0.0975,0.113,0.0165,-0.13,0.153,0.054,0.174,0.166,0.1435,0.207,0.0515,-0.1145,0.0165
-0.064,-0.1605,-0.0965,0.1125,0.0165,-0.129,0.1545,0.0535,0.175,0.166,0.1445,0.207,0.049,-0.1135,0.0155
-0.0615,-0.159,-0.0975,0.11,0.0185,-0.1285,0.1565,0.0525,0.1775,0.1675,0.1475,0.2085,0.049,-0.1165,0.0165
-0.064,-0.1635,-0.099,0.114,0.0175,-0.1315,0.156,0.053,0.1765,0.168,0.146,0.2085,0.0485,-0.12,0.0175
-0.0755,-0.173,-0.0975,0.1245,0.011,-0.1355,0.1535,0.051,0.1755,0.165,0.145,0.209,0.0495,-0.117,0.0185
-0.0795,-0.175,-0.096,0.127,0.0085,-0.136,0.1535,0.0515,0.1755,0.166,0.147,0.2095,0.0505,-0.119,0.019
-0.0745,-0.168,-0.0935,0.121,0.01,-0.131,0.157,0.054,0.179,0.171,0.151,0.212,0.0495,-0.1185,0.016
-0.0795,-0.1735,-0.094,0.1265,0.0075,-0.134,0.158,0.0545,0.1795,0.1715,0.15,0.212,0.05,-0.117,0.0165
-0.0845,-0.174,-0.09,0.1295,0.003,-0.1325,0.1605,0.056,0.181,0.1725,0.151,0.214,0.052,-0.1185,0.0155
-0.085,-0.1695,-0.0845,0.1275,0.0,-0.1275,0.1625,0.0585,0.1835,0.1755,0.1525,0.2165,0.0535,-0.115,0.014
-0.0825,-0.168,-0.0855,0.125,0.002,-0.127,0.1635,0.0585,0.1845,0.176,0.1525,0.216,0.0535,-0.1105,0.0115
-0.075,-0.157,-0.0825,0.116,0.004,-0.12,0.1675,0.0595,0.186,0.177,0.154,0.218,0.0515,-0.1045,0.0075
-0.0735,-0.15,-0.0765,0.1115,0.002,-0.1135,0.176,0.062,0.19,0.179,0.1565,0.2215,0.05,-0.0985,0.0035
-0.0695,-0.1445,-0.075,0.107,0.003,-0.11,0.1815,0.0665,0.196,0.185,0.1605,0.226,0.0515,-0.098,0.001
-0.0665,-0.141,-0.075,0.104,0.0045,-0.108,0.1805,0.066,0.1935,0.1855,0.161,0.2255,0.053,-0.097,0.001
-0.069,-0.138,-0.069,0.1035,0.0,-0.1035,0.1835,0.0645,0.192,0.1845,0.1615,0.2275,0.0535,-0.094,0.0
-0.067,-0.13,-0.063,0.0985,-0.0015,-0.097,0.1855,0.0655,0.194,0.186,0.1635,0.2285,0.0535,-0.09,-0.002
-0.0645,-0.1235,-0.059,0.094,-0.0025,-0.0915,0.1895,0.067,0.1955,0.1865,0.165,0.2305,0.0535,-0.085,-0.0035
-0.06,-0.1145,-0.0545,0.087,-0.0025,-0.0845,0.1945,0.0695,0.1975,0.1885,0.167,0.233,0.055,-0.081,-0.0045
-0.054,-0.109,-0.0545,0.0815,0.0005,-0.082,0.198,0.0705,0.199,0.1895,0.169,0.233,0.055,-0.0755,-0.0075
-0.0525,-0.1125,-0.06,0.0825,0.004,-0.0865,0.204,0.0735,0.201,0.1935,0.171,0.2365,0.055,-0.0765,-0.009
-0.0525,-0.113,-0.0605,0.083,0.004,-0.087,0.2075,0.0765,0.2035,0.1965,0.174,0.236,0.0535,-0.082,-0.0105
-0.0625,-0.1145,-0.052,0.0885,-0.005,-0.0835,0.2085,0.075,0.2035,0.194,0.172,0.233,0.053,-0.078,-0.0115
-0.0705,-0.1185,-0.048,0.0945,-0.011,-0.0835,0.21,0.0735,0.2015,0.1915,0.169,0.229,0.0535,-0.07,-0.0125
-0.066,-0.111,-0.045,0.0885,-0.01,-0.0785,0.213,0.0755,0.2035,0.193,0.171,0.231,0.053,-0.068,-0.0135
-0.0655,-0.108,-0.0425,0.0865,-0.011,-0.0755,0.213,0.0765,0.2035,0.1955,0.17,0.2315,0.055,-0.0705,-0.0125
-0.065,-0.1075,-0.042,0.0865,-0.0115,-0.075,0.214,0.0775,0.204,0.195,0.1695,0.2305,0.057,-0.065,-0.014
-0.061,-0.1045,-0.0435,0.083,-0.0085,-0.074,0.2155,0.079,0.207,0.195,0.1715,0.2315,0.058,-0.0645,-0.016
-0.063,-0.1045,-0.0415,0.0835,-0.0105,-0.0735,0.219,0.0815,0.21,0.1985,0.1745,0.2335,0.0585,-0.071,-0.016
-0.0685,-0.106,-0.0375,0.0875,-0.0155,-0.072,0.222,0.082,0.211,0.2,0.1745,0.233,0.0575,-0.0685,-0.0175
-0.07,-0.1085,-0.0385,0.0895,-0.0155,-0.074,0.223,0.083,0.2115,0.1995,0.1725,0.2315,0.056,-0.0655,-0.019
-0.063,-0.1025,-0.039,0.0825,-0.012,-0.071,0.2265,0.086,0.2135,0.201,0.1745,0.2345,0.058,-0.0665,-0.02
-0.0615,-0.1025,-0.041,0.082,-0.01,-0.072,0.225,0.0855,0.214,0.201,0.175,0.235,0.0595,-0.0655,-0.0215
-0.0625,-0.1055,-0.043,0.084,-0.0095,-0.0745,0.2215,0.0845,0.2115,0.199,0.1725,0.2315,0.059,-0.065,-0.0215
-0.056,-0.104,-0.048,0.08,-0.0035,-0.0765,0.2195,0.085,0.212,0.1985,0.1735,0.2315,0.06,-0.0675,-0.022
-0.057,-0.105,-0.048,0.081,-0.004,-0.077,0.2195,0.0835,0.2125,0.199,0.175,0.232,0.0585,-0.0675,-0.022
-0.064,-0.104,-0.04,0.084,-0.012,-0.072,0.2255,0.0865,0.214,0.2,0.1765,0.2325,0.0565,-0.0635,-0.023
-0.066,-0.101,-0.0345,0.0835,-0.0155,-0.068,0.229,0.0895,0.215,0.202,0.1765,0.234,0.056,-0.063,-0.0235
-0.0655,-0.098,-0.0325,0.0815,-0.016,-0.0655,0.2265,0.0855,0.2125,0.1985,0.1745,0.2315,0.054,-0.0625,-0.023
-0.06,-0.0945,-0.0345,0.0775,-0.0125,-0.065,0.2235,0.0835,0.212,0.1975,0.1735,0.232,0.055,-0.063,-0.0205
-0.06,-0.094,-0.034,0.077,-0.0125,-0.064,0.2195,0.082,0.2115,0.198,0.1745,0.234,0.0565,-0.062,-0.017
-0.0575,-0.089,-0.0315,0.073,-0.0125,-0.0605,0.216,0.082,0.212,0.199,0.1765,0.234,0.057,-0.058,-0.015
-0.057,-0.0865,-0.0295,0.0715,-0.0135,-0.058,0.2085,0.081,0.211,0.199,0.1755,0.2335,0.0595,-0.058,-0.0115
-0.0615,-0.0915,-0.03,0.0765,-0.0155,-0.061,0.202,0.077,0.208,0.196,0.1735,0.2325,0.06,-0.0595,-0.008
-0.0605,-0.091,-0.0305,0.0755,-0.015,-0.061,0.1965,0.076,0.2075,0.1955,0.1745,0.2335,0.061,-0.0595,-0.003
-0.061,-0.088,-0.027,0.0745,-0.017,-0.0575,0.1905,0.0765,0.209,0.1975,0.177,0.2375,0.0635,-0.0595,0.0005
-0.0645,-0.088,-0.024,0.0765,-0.02,-0.0565,0.1865,0.078,0.2105,0.199,0.1785,0.24,0.065,-0.064,0.003
-0.0665,-0.0895,-0.023,0.078,-0.0215,-0.0565,0.182,0.0765,0.2095,0.199,0.178,0.24,0.0655,-0.065,0.0045
-0.0625,-0.089,-0.0265,0.0755,-0.0175,-0.058,0.1815,0.0755,0.2105,0.1995,0.178,0.24,0.0645,-0.0705,0.0065
-0.052,-0.0865,-0.0345,0.069,-0.0085,-0.061,0.1775,0.073,0.2075,0.1975,0.176,0.2375,0.0655,-0.073,0.008
-0.047,-0.088,-0.0415,0.0675,-0.0025,-0.065,0.1725,0.07,0.205,0.194,0.1725,0.235,0.065,-0.066,0.0075
-0.0465,-0.0875,-0.0415,0.067,-0.0025,-0.0645,0.1715,0.069,0.2065,0.195,0.1725,0.2365,0.066,-0.0675,0.008
-0.0425,-0.086,-0.0435,0.0645,0.001,-0.0655,0.17,0.0685,0.206,0.1965,0.1745,0.2375,0.0665,-0.071,0.0085
-0.044,-0.0875,-0.044,0.066,0.0005,-0.066,0.1675,0.069,0.207,0.1965,0.175,0.2375,0.067,-0.07,0.009
-0.0395,-0.087,-0.0475,0.0635,0.004,-0.0675,0.16,0.068,0.205,0.1945,0.173,0.2365,0.07,-0.0705,0.0105
-0.0405,-0.093,-0.0525,0.0665,0.006,-0.073,0.156,0.064,0.2015,0.189,0.169,0.2335,0.0685,-0.0735,0.0125
-0.048,-0.101,-0.053,0.0745,0.003,-0.0775,0.155,0.0615,0.2,0.1855,0.167,0.232,0.0675,-0.074,0.013
-0.0495,-0.107,-0.0575,0.078,0.0045,-0.0825,0.1485,0.0585,0.196,0.183,0.163,0.2275,0.067,-0.0785,0.015
-0.0485,-0.1055,-0.057,0.077,0.0045,-0.082,0.1445,0.055,0.1935,0.181,0.161,0.227,0.0685,-0.0785,0.017
-0.044,-0.103,-0.059,0.0735,0.0075,-0.081,0.138,0.053,0.1935,0.1815,0.162,0.227,0.07,-0.078,0.0195
-0.045,-0.1035,-0.058,0.0745,0.007,-0.081,0.134,0.0525,0.193,0.182,0.163,0.2265,0.07,-0.077,0.0215
-0.0465,-0.106,-0.0595,0.0765,0.0065,-0.083,0.1315,0.051,0.191,0.1805,0.163,0.227,0.072,-0.072,0.024
-0.043,-0.1065,-0.064,0.075,0.0105,-0.0855,0.125,0.05,0.189,0.1795,0.161,0.2265,0.0735,-0.079,0.0275
-0.039,-0.1025,-0.064,0.071,0.013,-0.0835,0.1235,0.051,0.1905,0.181,0.164,0.2285,0.0735,-0.078,0.0275
-0.0405,-0.103,-0.0625,0.0715,0.011,-0.083,0.123,0.0505,0.191,0.182,0.166,0.2295,0.0735,-0.076,0.028
-0.0415,-0.1005,-0.059,0.071,0.009,-0.08,0.122,0.0515,0.191,0.1825,0.168,0.2315,0.074,-0.077,0.028
-0.038,-0.102,-0.064,0.07,0.013,-0.083,0.1225,0.0505,0.1905,0.1835,0.1685,0.231,0.073,-0.0805,0.0275
-0.0415,-0.1035,-0.062,0.0725,0.0105,-0.083,0.121,0.047,0.1895,0.1835,0.168,0.2285,0.072,-0.0775,0.028
-0.054,-0.105,-0.051,0.0795,-0.001,-0.0785,0.1175,0.043,0.186,0.1805,0.166,0.229,0.0735,-0.0735,0.031
-0.0575,-0.1065,-0.049,0.082,-0.004,-0.078,0.115,0.041,0.1835,0.1785,0.1645,0.2295,0.0735,-0.0765,0.0325
-0.0625,-0.1105,-0.0475,0.0865,-0.007,-0.079,0.1135,0.0395,0.182,0.1785,0.1655,0.23,0.073,-0.071,0.034
-0.0595,-0.11,-0.051,0.0845,-0.004,-0.0805,0.1085,0.036,0.178,0.176,0.1645,0.229,0.074,-0.0735,0.0345
-0.054,-0.1035,-0.0495,0.079,-0.002,-0.0765,0.105,0.035,0.1765,0.174,0.165,0.229,0.0735,-0.0715,0.0325
-0.057,-0.104,-0.0465,0.0805,-0.005,-0.0755,0.1045,0.0335,0.176,0.1735,0.163,0.228,0.0715,-0.07,0.033
-0.0475,-0.098,-0.0505,0.073,0.0015,-0.0745,0.1025,0.0345,0.1765,0.1735,0.1635,0.231,0.074,-0.072,0.034
-0.0405,-0.0915,-0.051,0.066,0.0055,-0.0715,0.1025,0.038,0.181,0.1765,0.166,0.235,0.0775,-0.0705,0.0355
-0.047,-0.094,-0.047,0.0705,0.0,-0.0705,0.103,0.0385,0.1825,0.1785,0.1665,0.234,0.0765,-0.0755,0.037
-0.0535,-0.098,-0.0445,0.0755,-0.004,-0.0715,0.0985,0.038,0.1795,0.1755,0.1655,0.232,0.075,-0.075,0.0375
-0.0475,-0.0995,-0.0525,0.0735,0.0025,-0.076,0.0945,0.0375,0.178,0.175,0.164,0.2305,0.077,-0.0755,0.0385
-0.043,-0.1,-0.0575,0.0715,0.0075,-0.079,0.094,0.038,0.179,0.1755,0.1635,0.2295,0.0795,-0.0805,0.0415
-0.037,-0.1025,-0.066,0.0695,0.015,-0.0845,0.095,0.038,0.179,0.1745,0.162,0.2285,0.078,-0.084,0.0435
-0.037,-0.1095,-0.073,0.0735,0.0185,-0.0915,0.096,0.039,0.1795,0.1725,0.159,0.228,0.0765,-0.081,0.0455
-0.037,-0.112,-0.075,0.0745,0.0195,-0.094,0.0965,0.0405,0.18,0.1725,0.157,0.227,0.076,-0.081,0.0465
-0.038,-0.1155,-0.0775,0.077,0.02,-0.097,0.0965,0.041,0.1805,0.174,0.158,0.2275,0.0775,-0.088,0.048
-0.041,-0.1225,-0.0815,0.0815,0.0205,-0.1025,0.097,0.042,0.1815,0.175,0.1585,0.229,0.081,-0.0925,0.0505
-0.0345,-0.1255,-0.091,0.0795,0.0285,-0.1085,0.098,0.045,0.183,0.1795,0.161,0.232,0.083,-0.0985,0.0505
-0.034,-0.1325,-0.099,0.0835,0.0325,-0.116,0.098,0.0455,0.184,0.1805,0.1625,0.2315,0.0845,-0.1005,0.051
-0.036,-0.142,-0.106,0.089,0.0355,-0.124,0.0965,0.0465,0.1845,0.18,0.163,0.231,0.0855,-0.1005,0.051
-0.034,-0.148,-0.1135,0.091,0.04,-0.131,0.0985,0.0505,0.188,0.184,0.1665,0.234,0.086,-0.105,0.051
-0.0375,-0.1545,-0.1165,0.096,0.04,-0.136,0.1035,0.054,0.1915,0.187,0.17,0.236,0.086,-0.11,0.0525
-0.044,-0.1605,-0.1165,0.102,0.0365,-0.1385,0.1045,0.0545,0.1905,0.1855,0.1695,0.236,0.087,-0.1115,0.0535
-0.034,-0.1555,-0.1215,0.095,0.044,-0.139,0.1025,0.0525,0.1895,0.184,0.167,0.235,0.089,-0.1095,0.054
-0.0205,-0.1535,-0.133,0.087,0.0565,-0.1435,0.1025,0.054,0.1895,0.1855,0.167,0.237,0.093,-0.111,0.053
-0.0185,-0.1585,-0.14,0.0885,0.061,-0.1495,0.102,0.054,0.1875,0.184,0.1665,0.238,0.096,-0.1165,0.053
-0.013,-0.1615,-0.1485,0.0875,0.068,-0.1555,0.1005,0.053,0.1855,0.182,0.1645,0.2355,0.0975,-0.1205,0.0525
-0.0165,-0.169,-0.1525,0.093,0.0685,-0.161,0.1005,0.052,0.1835,0.1785,0.1615,0.233,0.0955,-0.124,0.051
-0.0195,-0.1695,-0.1505,0.0945,0.066,-0.1605,0.1035,0.049,0.18,0.176,0.1595,0.2305,0.0915,-0.128,0.049
-0.018,-0.174,-0.1565,0.096,0.0695,-0.1655,0.1035,0.047,0.1765,0.1725,0.1555,0.227,0.089,-0.133,0.05
-0.0265,-0.1865,-0.16,0.1065,0.067,-0.1735,0.102,0.0435,0.173,0.168,0.149,0.22,0.0865,-0.139,0.05
-0.028,-0.1895,-0.161,0.1085,0.067,-0.1755,0.1025,0.045,0.172,0.169,0.148,0.219,0.089,-0.143,0.0475
-0.0205,-0.182,-0.1615,0.1015,0.071,-0.172,0.105,0.0515,0.1785,0.173,0.1535,0.225,0.094,-0.141,0.046
-0.013,-0.1715,-0.159,0.0925,0.0735,-0.1655,0.112,0.0575,0.187,0.181,0.1615,0.2305,0.095,-0.137,0.04
-0.009,-0.161,-0.152,0.085,0.072,-0.157,0.1165,0.062,0.192,0.1855,0.166,0.2365,0.096,-0.1315,0.036
-0.005,-0.1485,-0.1435,0.077,0.0695,-0.1465,0.1215,0.066,0.1975,0.19,0.1695,0.242,0.0975,-0.1215,0.0325
-0.0065,-0.143,-0.1365,0.0745,0.0655,-0.14,0.126,0.0685,0.2015,0.1945,0.175,0.246,0.098,-0.118,0.0285
-0.0175,-0.141,-0.1235,0.079,0.0535,-0.1325,0.126,0.0685,0.201,0.1945,0.1765,0.2475,0.0995,-0.1075,0.0235
-0.0195,-0.1365,-0.117,0.078,0.049,-0.127,0.1285,0.07,0.2025,0.1975,0.179,0.249,0.102,-0.0995,0.019
-0.0235,-0.131,-0.1075,0.077,0.0425,-0.1195,0.1345,0.073,0.208,0.2015,0.1845,0.2515,0.1015,-0.0985,0.015
-0.036,-0.1305,-0.0945,0.083,0.0295,-0.1125,0.1375,0.073,0.208,0.202,0.1855,0.25,0.098,-0.087,0.009
-0.0425,-0.129,-0.0865,0.086,0.022,-0.108,0.139,0.073,0.2095,0.205,0.187,0.252,0.0975,-0.077,0.007
-0.0485,-0.128,-0.0795,0.088,0.016,-0.104,0.1445,0.075,0.211,0.2075,0.19,0.2545,0.095,-0.0775,0.0035
-0.0555,-0.1305,-0.075,0.093,0.01,-0.103,0.1465,0.0735,0.2075,0.2055,0.1885,0.253,0.093,-0.0865,0.0045
-0.0555,-0.128,-0.0725,0.0915,0.0085,-0.1005,0.1495,0.0735,0.208,0.2045,0.19,0.255,0.0915,-0.094,0.005
-0.0555,-0.1355,-0.0795,0.0955,0.0125,-0.1075,0.152,0.071,0.2035,0.2,0.186,0.2515,0.087,-0.1,0.0025
-0.059,-0.1445,-0.0855,0.102,0.0135,-0.1155,0.1505,0.0665,0.1975,0.1925,0.1775,0.246,0.085,-0.101,0.0045
-0.0575,-0.144,-0.0865,0.101,0.0145,-0.1155,0.151,0.0665,0.198,0.1935,0.177,0.2425,0.0825,-0.0985,0.0045
-0.062,-0.1485,-0.0865,0.1055,0.0125,-0.118,0.153,0.0715,0.201,0.1955,0.1775,0.242,0.0805,-0.1055,0.0025
-0.067,-0.1515,-0.0845,0.1095,0.009,-0.1185,0.1575,0.0765,0.206,0.1965,0.179,0.2435,0.0805,-0.115,0.0005
-0.0685,-0.1515,-0.083,0.11,0.0075,-0.1175,0.1605,0.0765,0.207,0.196,0.18,0.2415,0.0775,-0.117,-0.002
-0.067,-0.159,-0.092,0.113,0.013,-0.1255,0.1635,0.078,0.208,0.1965,0.1775,0.2385,0.073,-0.1195,-0.004
-0.057,-0.161,-0.104,0.109,0.024,-0.1325,0.1655,0.0795,0.209,0.1985,0.1785,0.238,0.072,-0.129,-0.0025
-0.0645,-0.167,-0.1025,0.116,0.019,-0.135,0.165,0.078,0.2065,0.1975,0.177,0.2375,0.072,-0.13,-0.002
-0.0715,-0.174,-0.1025,0.123,0.0155,-0.1385,0.161,0.075,0.204,0.194,0.173,0.2335,0.071,-0.135,0.0
-0.0645,-0.169,-0.1045,0.1165,0.0205,-0.137,0.1605,0.0735,0.201,0.1905,0.172,0.2325,0.0695,-0.141,0.005
-0.066,-0.1745,-0.108,0.1205,0.021,-0.1415,0.1585,0.0715,0.1965,0.186,0.1665,0.227,0.065,-0.1415,0.0095
-0.0685,-0.1815,-0.1135,0.125,0.023,-0.148,0.1545,0.0665,0.1895,0.1795,0.16,0.2215,0.0635,-0.142,0.013
-0.0695,-0.1825,-0.113,0.126,0.022,-0.148,0.153,0.062,0.183,0.1735,0.1535,0.2185,0.0605,-0.1455,0.017
-0.066,-0.1835,-0.1175,0.125,0.026,-0.151,0.1505,0.056,0.178,0.1695,0.1485,0.2135,0.058,-0.147,0.02
-0.0625,-0.183,-0.121,0.1225,0.0295,-0.152,0.151,0.0525,0.1755,0.168,0.148,0.2125,0.057,-0.144,0.021
-0.07,-0.187,-0.117,0.1285,0.024,-0.152,0.15,0.0505,0.173,0.166,0.145,0.209,0.0515,-0.1515,0.0225
-0.074,-0.189,-0.1155,0.1315,0.021,-0.1525,0.15,0.0465,0.1695,0.161,0.142,0.2045,0.048,-0.15,0.023
-0.069,-0.1855,-0.116,0.127,0.0235,-0.151,0.15,0.0445,0.167,0.159,0.14,0.203,0.048,-0.143,0.023
-0.0625,-0.1835,-0.1215,0.123,0.03,-0.1525,0.1485,0.0435,0.1635,0.1565,0.137,0.2015,0.048,-0.145,0.0265
-0.0615,-0.1855,-0.1235,0.1235,0.0315,-0.155,0.146,0.039,0.158,0.149,0.131,0.196,0.044,-0.146,0.0295
-0.0685,-0.1915,-0.123,0.13,0.0275,-0.1575,0.145,0.0365,0.1535,0.1455,0.1265,0.192,0.0405,-0.149,0.0305
-0.071,-0.1945,-0.124,0.1325,0.0265,-0.1595,0.146,0.0375,0.1535,0.1445,0.1255,0.1915,0.04,-0.1505,0.0295
-0.0675,-0.1935,-0.126,0.1305,0.0295,-0.16,0.1455,0.0385,0.155,0.145,0.1255,0.195,0.042,-0.1555,0.0325
-0.0635,-0.191,-0.127,0.127,0.032,-0.1595,0.1455,0.0405,0.1555,0.146,0.1265,0.196,0.0425,-0.1585,0.035
-0.064,-0.193,-0.1295,0.1285,0.033,-0.1615,0.145,0.0395,0.156,0.1445,0.127,0.1935,0.0395,-0.1575,0.033
-0.064,-0.198,-0.134,0.131,0.035,-0.166,0.147,0.0405,0.1565,0.1455,0.1285,0.1955,0.0405,-0.16,0.0325
-0.0675,-0.2005,-0.133,0.134,0.033,-0.167,0.147,0.043,0.158,0.1485,0.133,0.1965,0.041,-0.1605,0.0305
-0.071,-0.2045,-0.1335,0.1375,0.0315,-0.169,0.1455,0.0425,0.159,0.1505,0.1335,0.197,0.0395,-0.158,0.0285
-0.0715,-0.2025,-0.131,0.137,0.03,-0.167,0.1445,0.042,0.1585,0.151,0.1325,0.198,0.0405,-0.155,0.029
-0.0645,-0.2025,-0.138,0.1335,0.037,-0.1705,0.1395,0.039,0.157,0.149,0.132,0.1965,0.044,-0.158,0.0305
-0.0605,-0.1995,-0.139,0.13,0.0395,-0.1695,0.137,0.039,0.157,0.1495,0.132,0.1965,0.0435,-0.1565,0.031
-0.0635,-0.194,-0.131,0.1285,0.034,-0.163,0.138,0.0415,0.16,0.1515,0.1345,0.197,0.0425,-0.1525,0.031
-0.062,-0.191,-0.1295,0.1265,0.034,-0.1605,0.139,0.043,0.1595,0.1525,0.135,0.1965,0.043,-0.1555,0.0315
-0.064,-0.191,-0.1275,0.1275,0.032,-0.1595,0.139,0.042,0.158,0.1505,0.1315,0.1935,0.0415,-0.1565,0.033
-0.0705,-0.1965,-0.126,0.1335,0.028,-0.1615,0.1395,0.043,0.159,0.1515,0.131,0.194,0.041,-0.1565,0.033
-0.073,-0.1935,-0.1205,0.133,0.024,-0.157,0.142,0.044,0.1595,0.1535,0.1325,0.1975,0.04,-0.159,0.0315
-0.066,-0.1875,-0.1215,0.127,0.028,-0.1545,0.14,0.0425,0.1595,0.1515,0.1325,0.197,0.0415,-0.161,0.0315
-0.0585,-0.18,-0.121,0.1195,0.0315,-0.1505,0.1405,0.0425,0.16,0.151,0.1335,0.1965,0.0425,-0.1545,0.0315
-0.0565,-0.1765,-0.12,0.1165,0.032,-0.1485,0.145,0.046,0.1635,0.155,0.1345,0.1975,0.0415,-0.151,0.0295
-0.0595,-0.1825,-0.123,0.121,0.032,-0.153,0.1425,0.046,0.163,0.154,0.133,0.197,0.0415,-0.155,0.0285
-0.066,-0.189,-0.123,0.1275,0.0285,-0.156,0.141,0.0435,0.16,0.152,0.132,0.196,0.043,-0.152,0.027
-0.0755,-0.1985,-0.1225,0.137,0.024,-0.161,0.139,0.042,0.158,0.15,0.13,0.195,0.0435,-0.1505,0.027
-0.0775,-0.1985,-0.1205,0.138,0.022,-0.16,0.1375,0.0415,0.159,0.1495,0.1295,0.195,0.045,-0.15,0.0295
-0.076,-0.1955,-0.119,0.136,0.0215,-0.1575,0.138,0.043,0.1605,0.152,0.1325,0.196,0.0455,-0.1495,0.029
-0.0755,-0.196,-0.1205,0.136,0.0225,-0.159,0.139,0.044,0.1615,0.151,0.1345,0.199,0.046,-0.153,0.029
-0.064,-0.186,-0.1225,0.125,0.0295,-0.1545,0.14,0.044,0.1635,0.1525,0.137,0.2015,0.048,-0.153,0.0285
-0.0625,-0.1825,-0.12,0.1225,0.029,-0.1515,0.1395,0.0445,0.1625,0.1525,0.138,0.202,0.0475,-0.151,0.0275
-0.0635,-0.1815,-0.118,0.1225,0.0275,-0.15,0.1415,0.0465,0.1645,0.1535,0.1395,0.2025,0.046,-0.1505,0.028
-0.056,-0.175,-0.119,0.1155,0.032,-0.1475,0.143,0.0475,0.165,0.154,0.14,0.2025,0.0445,-0.1495,0.027
-0.0585,-0.181,-0.1225,0.12,0.0325,-0.152,0.1455,0.049,0.165,0.155,0.1405,0.203,0.0445,-0.1495,0.027
-0.0645,-0.1895,-0.125,0.127,0.0305,-0.1575,0.1455,0.0505,0.167,0.158,0.1415,0.206,0.045,-0.153,0.0285
-0.0685,-0.1935,-0.1245,0.131,0.028,-0.159,0.141,0.0515,0.167,0.156,0.1395,0.2055,0.045,-0.1525,0.028
-0.0675,-0.1935,-0.126,0.1305,0.0295,-0.16,0.141,0.0505,0.165,0.1545,0.1395,0.2035,0.0445,-0.15,0.029
-0.0655,-0.193,-0.1275,0.129,0.031,-0.1605,0.141,0.0465,0.162,0.152,0.137,0.2025,0.0425,-0.152,0.0285
-0.0615,-0.191,-0.1295,0.126,0.0345,-0.1605,0.1405,0.045,0.1605,0.153,0.137,0.2015,0.043,-0.1525,0.0275
-0.059,-0.192,-0.1325,0.1255,0.037,-0.1625,0.14,0.043,0.16,0.154,0.1365,0.2035,0.0435,-0.149,0.0295
-0.061,-0.194,-0.133,0.128,0.036,-0.164,0.1375,0.04,0.159,0.152,0.1345,0.204,0.043,-0.157,0.0315
-0.069,-0.201,-0.132,0.135,0.032,-0.167,0.136,0.0395,0.1575,0.1515,0.134,0.2005,0.043,-0.1635,0.0315
-0.0685,-0.2055,-0.137,0.137,0.0345,-0.1715,0.1345,0.045,0.1605,0.1515,0.132,0.1975,0.0425,-0.165,0.028
-0.062,-0.203,-0.141,0.1325,0.0395,-0.172,0.137,0.058,0.169,0.1555,0.131,0.1955,0.0435,-0.165,0.024
-0.0625,-0.2075,-0.1445,0.135,0.0415,-0.1765,0.141,0.073,0.1805,0.1625,0.1295,0.1925,0.0455,-0.16,0.0195
-0.0585,-0.2115,-0.153,0.135,0.0475,-0.1825,0.1425,0.091,0.198,0.173,0.132,0.192,0.0475,-0.1685,0.0175
-0.0535,-0.217,-0.164,0.1355,0.0555,-0.1905,0.1445,0.121,0.224,0.192,0.137,0.1945,0.055,-0.178,0.013
-0.037,-0.2255,-0.1885,0.131,0.076,-0.207,0.141,0.149,0.245,0.2045,0.138,0.194,0.063,-0.1885,0.007
-0.0175,-0.2345,-0.217,0.126,0.1,-0.226,0.1325,0.177,0.268,0.221,0.1435,0.198,0.076,-0.2005,0.0075
-0.008,-0.242,-0.2345,0.125,0.1135,-0.2385,0.1335,0.219,0.3055,0.247,0.1565,0.2075,0.091,-0.2065,0.0005
0.0005,-0.2425,-0.243,0.121,0.122,-0.243,0.143,0.26,0.342,0.2725,0.17,0.2145,0.0975,-0.21,-0.012
0.0055,-0.2435,-0.249,0.119,0.1275,-0.2465,0.1495,0.301,0.3855,0.304,0.1875,0.225,0.1095,-0.213,-0.021
0.004,-0.2505,-0.2545,0.123,0.1295,-0.2525,0.158,0.35,0.4385,0.342,0.2065,0.236,0.124,-0.219,-0.0335
0.018,-0.2485,-0.2665,0.115,0.1425,-0.258,0.177,0.4105,0.498,0.3845,0.2255,0.2445,0.1335,-0.2245,-0.051
0.0305,-0.238,-0.2685,0.104,0.1495,-0.2535,0.2045,0.4605,0.554,0.42,0.243,0.251,0.1355,-0.2305,-0.0705
0.0365,-0.235,-0.272,0.099,0.1545,-0.254,0.236,0.5265,0.6235,0.4685,0.2635,0.257,0.1425,-0.2385,-0.096
0.0425,-0.2505,-0.293,0.104,0.168,-0.272,0.2665,0.6025,0.6915,0.5125,0.276,0.2555,0.1515,-0.2485,-0.126
0.0455,-0.27,-0.316,0.112,0.181,-0.293,0.292,0.679,0.7625,0.565,0.301,0.2665,0.17,-0.261,-0.1535
0.055,-0.28,-0.3355,0.1125,0.196,-0.308,0.31,0.763,0.856,0.6485,0.3485,0.298,0.207,-0.267,-0.1815
0.062,-0.287,-0.35,0.112,0.2065,-0.3185,0.329,0.828,0.936,0.7205,0.387,0.32,0.235,-0.2695,-0.2085
0.0755,-0.2835,-0.3595,0.104,0.218,-0.322,0.358,0.897,1.021,0.791,0.421,0.3385,0.2545,-0.272,-0.235
0.0935,-0.272,-0.3665,0.089,0.2305,-0.3195,0.378,0.9475,1.0985,0.863,0.4615,0.364,0.2805,-0.267,-0.2605
0.1145,-0.2585,-0.3735,0.0715,0.2445,-0.3165,0.4065,1.0175,1.202,0.9645,0.5285,0.4085,0.329,-0.265,-0.295
0.1285,-0.2475,-0.3765,0.0595,0.253,-0.312,0.443,1.106,1.3165,1.0835,0.6085,0.4625,0.3855,-0.2585,-0.3395
0.1525,-0.2305,-0.3835,0.0385,0.2685,-0.307,0.4555,1.185,1.429,1.2135,0.703,0.5285,0.4565,-0.245,-0.383
0.1835,-0.215,-0.399,0.0155,0.292,-0.3075,0.468,1.2615,1.5495,1.355,0.8075,0.602,0.5305,-0.239,-0.421
0.215,-0.214,-0.4295,-0.001,0.323,-0.322,0.483,1.322,1.658,1.4875,0.898,0.665,0.5995,-0.2455,-0.451
0.2435,-0.2105,-0.4545,-0.017,0.3495,-0.3325,0.4975,1.392,1.779,1.623,0.9805,0.718,0.661,-0.249,-0.4875
0.265,-0.206,-0.4715,-0.03,0.369,-0.339,0.509,1.4435,1.8825,1.743,1.053,0.763,0.7115,-0.2525,-0.5215
0.288,-0.1955,-0.484,-0.0465,0.3865,-0.34,0.529,1.4925,2.002,1.8875,1.143,0.819,0.7745,-0.25,-0.557
0.298,-0.1835,-0.482,-0.0575,0.3905,-0.333,0.5565,1.5435,2.1325,2.0445,1.239,0.872,0.8335,-0.2365,-0.599
0.306,-0.166,-0.4725,-0.07,0.3895,-0.3195,0.5705,1.575,2.254,2.196,1.336,0.9295,0.8935,-0.219,-0.628
0.312,-0.1205,-0.4325,-0.096,0.3725,-0.2765,0.574,1.5955,2.3795,2.351,1.4365,0.989,0.9495,-0.181,-0.652
0.3235,-0.0665,-0.3905,-0.129,0.3575,-0.2285,0.581,1.607,2.4945,2.5055,1.5415,1.0515,1.006,-0.1475,-0.675
0.3285,-0.0195,-0.3485,-0.155,0.339,-0.184,0.6065,1.632,2.6155,2.659,1.6445,1.112,1.0595,-0.1145,-0.6955
0.325,0.0195,-0.306,-0.1725,0.316,-0.1435,0.631,1.623,2.6845,2.7595,1.711,1.1505,1.0905,-0.077,-0.707
0.3145,0.0585,-0.2565,-0.1865,0.286,-0.099,0.6525,1.575,2.7175,2.8335,1.7705,1.185,1.1135,-0.0425,-0.716
0.287,0.1085,-0.179,-0.198,0.2335,-0.0355,0.6435,1.4935,2.7145,2.8725,1.8195,1.218,1.13,0.005,-0.7055
0.26,0.1565,-0.104,-0.2085,0.1825,0.026,0.608,1.3915,2.663,2.856,1.838,1.2385,1.1315,0.052,-0.675
0.2315,0.2005,-0.0315,-0.2165,0.132,0.0845,0.582,1.282,2.592,2.811,1.8365,1.2465,1.1175,0.0975,-0.645
0.194,0.238,0.0435,-0.2165,0.076,0.1405,0.5445,1.099,2.422,2.6825,1.794,1.239,1.082,0.1355,-0.59
0.1395,0.279,0.1385,-0.2095,0.001,0.2085,0.493,0.895,2.214,2.508,1.7275,1.2145,1.025,0.1875,-0.53
0.071,0.3255,0.2545,-0.1985,-0.0915,0.2895,0.414,0.6475,1.9445,2.2635,1.6165,1.1605,0.9355,0.249,-0.4565
-0.003,0.3515,0.3545,-0.1745,-0.1785,0.353,0.3235,0.339,1.5705,1.902,1.421,1.0565,0.7955,0.286,-0.3495
-0.09,0.3545,0.4445,-0.132,-0.267,0.399,0.222,0.014,1.171,1.5055,1.199,0.9315,0.6405,0.315,-0.235
-0.167,0.3485,0.5155,-0.091,-0.341,0.4315,0.1105,-0.304,0.778,1.136,1.0005,0.819,0.5065,0.33,-0.1165
-0.221,0.3185,0.5395,-0.049,-0.38,0.429,-0.0045,-0.5855,0.3975,0.789,0.806,0.7085,0.382,0.3215,0.0085
-0.2835,0.2765,0.56,0.0035,-0.4215,0.418,-0.1175,-0.8865,-0.0365,0.404,0.5795,0.572,0.2285,0.3055,0.131
-0.328,0.2315,0.559,0.0485,-0.443,0.395,-0.2085,-1.1435,-0.4125,0.069,0.3665,0.4375,0.0845,0.2785,0.2385
-0.3445,0.16,0.504,0.092,-0.424,0.3315,-0.28,-1.316,-0.663,-0.1795,0.1785,0.3155,-0.0285,0.231,0.329
-0.356,0.095,0.4505,0.1305,-0.403,0.2725,-0.308,-1.384,-0.7965,-0.346,0.0335,0.216,-0.1195,0.18,0.3845
-0.3535,0.0365,0.39,0.1585,-0.3715,0.2135,-0.3245,-1.349,-0.8235,-0.421,-0.051,0.158,-0.1685,0.135,0.4095
-0.3595,-0.023,0.3365,0.191,-0.3475,0.1565,-0.3295,-1.3005,-0.834,-0.487,-0.138,0.093,-0.221,0.0905,0.4245
-0.3585,-0.0685,0.29,0.2135,-0.324,0.1105,-0.317,-1.2185,-0.8005,-0.5075,-0.1925,0.045,-0.2575,0.047,0.4245
-0.348,-0.109,0.2395,0.2285,-0.2935,0.065,-0.3195,-1.1345,-0.7535,-0.5035,-0.218,0.0205,-0.268,0.0175,0.421
-0.3385,-0.1345,0.204,0.2365,-0.271,0.0345,-0.3225,-1.0685,-0.721,-0.504,-0.2425,-0.002,-0.275,-0.0045,0.4205
-0.314,-0.1665,0.1475,0.2405,-0.2305,-0.0095,-0.321,-0.9955,-0.6755,-0.4835,-0.2435,-0.0055,-0.26,-0.0355,0.417
-0.2945,-0.195,0.0995,0.2445,-0.1965,-0.048,-0.3215,-0.926,-0.6245,-0.4565,-0.235,-0.0015,-0.239,-0.061,0.4135
-0.2725,-0.2,0.072,0.2365,-0.172,-0.0645,-0.3225,-0.862,-0.5715,-0.4215,-0.214,0.0145,-0.2115,-0.077,0.4095
-0.257,-0.205,0.0515,0.231,-0.154,-0.077,-0.314,-0.8055,-0.5245,-0.388,-0.189,0.0325,-0.1855,-0.0855,0.3985
-0.2425,-0.201,0.0415,0.2215,-0.1415,-0.08,-0.3085,-0.7545,-0.484,-0.3585,-0.1715,0.0445,-0.167,-0.092,0.391
-0.2275,-0.2045,0.0235,0.216,-0.1255,-0.091,-0.297,-0.708,-0.4495,-0.3365,-0.1605,0.0475,-0.156,-0.0985,0.3825
-0.224,-0.218,0.006,0.221,-0.115,-0.106,-0.2695,-0.6555,-0.412,-0.315,-0.1535,0.0475,-0.1485,-0.102,0.362
-0.2095,-0.225,-0.0155,0.2175,-0.097,-0.1205,-0.246,-0.604,-0.3755,-0.2925,-0.146,0.049,-0.1395,-0.113,0.3435
-0.189,-0.2415,-0.0525,0.215,-0.068,-0.147,-0.2245,-0.5515,-0.343,-0.275,-0.1435,0.046,-0.1295,-0.1335,0.327
-0.172,-0.2555,-0.0835,0.2135,-0.044,-0.17,-0.2025,-0.4975,-0.307,-0.2505,-0.1325,0.052,-0.1125,-0.147,0.31
-0.163,-0.265,-0.1015,0.214,-0.0305,-0.1835,-0.1745,-0.4415,-0.265,-0.219,-0.1125,0.065,-0.0975,-0.1555,0.2895
-0.147,-0.268,-0.121,0.2075,-0.013,-0.1945,-0.145,-0.3795,-0.217,-0.184,-0.09,0.081,-0.078,-0.1635,0.2675
-0.131,-0.27,-0.1395,0.2005,0.0045,-0.205,-0.122,-0.3245,-0.174,-0.15,-0.0675,0.095,-0.059,-0.166,0.247
-0.1115,-0.2675,-0.156,0.189,0.0225,-0.212,-0.1055,-0.28,-0.136,-0.1195,-0.048,0.1065,-0.0425,-0.177,0.23
-0.0935,-0.2555,-0.162,0.175,0.0345,-0.209,-0.093,-0.243,-0.104,-0.0915,-0.0285,0.1225,-0.023,-0.185,0.215
-0.09,-0.2465,-0.1565,0.1685,0.0335,-0.202,-0.0725,-0.2065,-0.0745,-0.0645,-0.008,0.138,-0.007,-0.18,0.198
-0.0785,-0.2365,-0.1575,0.1575,0.0395,-0.197,-0.057,-0.181,-0.0535,-0.048,0.005,0.1435,-0.0005,-0.1765,0.186
-0.0815,-0.236,-0.1545,0.159,0.0365,-0.1955,-0.042,-0.158,-0.036,-0.0335,0.0145,0.1485,0.004,-0.167,0.1695
-0.0815,-0.2295,-0.148,0.1555,0.0335,-0.189,-0.024,-0.131,-0.0115,-0.0145,0.0285,0.158,0.015,-0.1645,0.1555
-0.0715,-0.219,-0.148,0.1455,0.0385,-0.184,-0.0065,-0.107,0.0075,0.001,0.041,0.1665,0.025,-0.1645,0.1435
-0.069,-0.216,-0.1475,0.1425,0.0395,-0.182,0.009,-0.083,0.028,0.0195,0.052,0.1755,0.035,-0.1575,0.128
-0.06,-0.2055,-0.1455,0.1325,0.043,-0.1755,0.021,-0.0685,0.0435,0.0315,0.06,0.181,0.0395,-0.163,0.1215
-0.0585,-0.202,-0.1435,0.1305,0.043,-0.173,0.03,-0.0595,0.0495,0.036,0.064,0.1825,0.041,-0.1645,0.115
-0.059,-0.204,-0.145,0.1315,0.0435,-0.175,0.039,-0.0465,0.058,0.044,0.068,0.1845,0.043,-0.167,0.1075
-0.0605,-0.2025,-0.142,0.1315,0.041,-0.1725,0.0525,-0.034,0.0675,0.0505,0.0715,0.1865,0.042,-0.1715,0.0995
-0.0595,-0.199,-0.1395,0.129,0.04,-0.1695,0.066,-0.026,0.0755,0.0545,0.0745,0.184,0.0385,-0.1675,0.0905
-0.057,-0.191,-0.134,0.124,0.039,-0.163,0.0755,-0.0175,0.0835,0.06,0.0785,0.1845,0.038,-0.1635,0.0815
-0.0605,-0.1885,-0.1285,0.1245,0.0345,-0.1585,0.0865,-0.01,0.0905,0.0675,0.082,0.1865,0.037,-0.161,0.074
-0.06,-0.192,-0.1325,0.126,0.0365,-0.1625,0.091,-0.0075,0.092,0.0685,0.0825,0.184,0.034,-0.16,0.0715
-0.0625,-0.192,-0.13,0.127,0.034,-0.161,0.0965,-0.004,0.0935,0.0695,0.0835,0.183,0.031,-0.1595,0.067
-0.0705,-0.191,-0.1205,0.131,0.025,-0.156,0.103,-0.001,0.0955,0.072,0.0855,0.183,0.0265,-0.158,0.0635
-0.0765,-0.1865,-0.11,0.1315,0.017,-0.1485,0.1035,-0.0015,0.095,0.072,0.0845,0.1815,0.024,-0.152,0.0605
-0.078,-0.185,-0.1065,0.1315,0.0145,-0.146,0.1,-0.0055,0.091,0.0675,0.0815,0.179,0.0225,-0.1445,0.06
-0.0785,-0.1835,-0.105,0.131,0.0135,-0.1445,0.0995,-0.009,0.0865,0.0645,0.0795,0.1775,0.019,-0.1365,0.0585
-0.0815,-0.181,-0.0995,0.131,0.009,-0.1405,0.102,-0.009,0.087,0.066,0.0805,0.1795,0.0195,-0.1405,0.059
-0.084,-0.185,-0.101,0.1345,0.009,-0.143,0.099,-0.0105,0.085,0.0635,0.0785,0.1775,0.0185,-0.141,0.059
-0.081,-0.181,-0.1,0.131,0.01,-0.141,0.0995,-0.0125,0.0825,0.061,0.076,0.175,0.0165,-0.138,0.0595
-0.079,-0.1765,-0.0975,0.128,0.0095,-0.137,0.101,-0.0115,0.083,0.0615,0.0785,0.1775,0.0165,-0.142,0.062
-0.0785,-0.176,-0.0975,0.1275,0.01,-0.137,0.1045,-0.0105,0.0815,0.062,0.079,0.1785,0.0145,-0.138,0.06
-0.0835,-0.1795,-0.0955,0.1315,0.006,-0.1375,0.106,-0.0085,0.0825,0.0625,0.08,0.179,0.0155,-0.136,0.06
-0.0815,-0.177,-0.0955,0.129,0.007,-0.1365,0.1075,-0.007,0.0825,0.0635,0.082,0.1815,0.017,-0.141,0.057
-0.072,-0.1695,-0.0975,0.121,0.013,-0.1335,0.109,-0.0095,0.0795,0.0605,0.078,0.1805,0.017,-0.144,0.057
-0.0755,-0.171,-0.0955,0.123,0.0105,-0.1335,0.1065,-0.011,0.077,0.056,0.0735,0.1775,0.015,-0.137,0.0595
-0.0735,-0.169,-0.0955,0.1215,0.011,-0.1325,0.1075,-0.0105,0.076,0.054,0.0685,0.174,0.0145,-0.135,0.0605
-0.071,-0.1655,-0.0945,0.1185,0.012,-0.13,0.11,-0.009,0.0765,0.055,0.0655,0.174,0.015,-0.1375,0.0615
-0.077,-0.162,-0.0855,0.1195,0.0045,-0.124,0.1095,-0.0095,0.0755,0.0535,0.0645,0.1725,0.015,-0.136,0.062
-0.0745,-0.16,-0.085,0.117,0.0055,-0.123,0.108,-0.0105,0.074,0.052,0.063,0.168,0.016,-0.1365,0.062
-0.074,-0.159,-0.0855,0.1165,0.006,-0.1225,0.109,-0.011,0.074,0.051,0.062,0.1655,0.016,-0.1315,0.0615
-0.0735,-0.1595,-0.086,0.116,0.0065,-0.123,0.107,-0.012,0.072,0.05,0.062,0.165,0.017,-0.1315,0.0595
-0.0725,-0.16,-0.0875,0.116,0.0075,-0.124,0.1055,-0.0125,0.069,0.049,0.0615,0.166,0.0185,-0.1305,0.058
-0.0705,-0.1575,-0.087,0.114,0.0085,-0.1225,0.1055,-0.0145,0.0675,0.0465,0.0605,0.1665,0.0175,-0.1285,0.061
-0.067,-0.157,-0.09,0.112,0.012,-0.124,0.105,-0.0165,0.065,0.046,0.0615,0.167,0.017,-0.133,0.0595
-0.074,-0.157,-0.0835,0.1155,0.005,-0.1205,0.107,-0.018,0.0635,0.044,0.0615,0.166,0.0155,-0.13,0.0595
-0.071,-0.153,-0.082,0.112,0.006,-0.1175,0.1095,-0.0165,0.065,0.045,0.064,0.17,0.0155,-0.1255,0.059
-0.0695,-0.153,-0.0835,0.111,0.0075,-0.1185,0.111,-0.0145,0.065,0.045,0.0665,0.173,0.0165,-0.124,0.0565
-0.075,-0.1565,-0.081,0.116,0.003,-0.119,0.1115,-0.013,0.0655,0.046,0.0685,0.1745,0.017,-0.1245,0.0575
-0.074,-0.1535,-0.08,0.1135,0.0035,-0.117,0.111,-0.012,0.067,0.049,0.071,0.179,0.0205,-0.1215,0.057
-0.0765,-0.152,-0.0755,0.114,-0.0005,-0.114,0.113,-0.01,0.069,0.0505,0.0735,0.181,0.019,-0.1225,0.057
-0.075,-0.152,-0.077,0.1135,0.001,-0.1145,0.115,-0.0095,0.07,0.0525,0.0765,0.1825,0.0185,-0.128,0.058
-0.062,-0.146,-0.084,0.104,0.011,-0.115,0.1145,-0.012,0.0685,0.0545,0.0775,0.183,0.0195,-0.1285,0.0575
-0.058,-0.1485,-0.0905,0.103,0.0165,-0.1195,0.112,-0.0145,0.0665,0.053,0.077,0.1815,0.0205,-0.1235,0.0565
-0.067,-0.1555,-0.089,0.1115,0.011,-0.1225,0.1135,-0.013,0.0665,0.054,0.0785,0.1805,0.02,-0.124,0.054
-0.071,-0.1525,-0.081,0.112,0.005,-0.117,0.118,-0.0085,0.0705,0.058,0.081,0.185,0.0195,-0.129,0.0535
-0.0765,-0.1545,-0.0785,0.1155,0.0015,-0.1165,0.119,-0.008,0.072,0.0585,0.0815,0.187,0.02,-0.1325,0.0545
-0.078,-0.156,-0.078,0.117,0.0,-0.117,0.1205,-0.008,0.072,0.0585,0.0825,0.1865,0.0195,-0.1365,0.054
-0.074,-0.157,-0.083,0.1155,0.005,-0.1205,0.1195,-0.009,0.071,0.0565,0.0815,0.1865,0.0215,-0.133,0.053
-0.0695,-0.157,-0.0875,0.1135,0.0095,-0.1225,0.1195,-0.011,0.0685,0.0535,0.08,0.185,0.021,-0.132,0.052
-0.0675,-0.154,-0.0865,0.111,0.01,-0.1205,0.1205,-0.0095,0.069,0.053,0.078,0.185,0.0205,-0.131,0.0515
-0.068,-0.1575,-0.09,0.113,0.011,-0.124,0.12,-0.01,0.068,0.053,0.077,0.185,0.023,-0.1345,0.0535
-0.07,-0.1605,-0.0905,0.115,0.0105,-0.1255,0.1205,-0.012,0.0665,0.0525,0.0775,0.1835,0.022,-0.1345,0.0535
-0.07,-0.158,-0.0885,0.114,0.0095,-0.1235,0.122,-0.012,0.0675,0.0505,0.0775,0.182,0.0205,-0.1295,0.0515
-0.071,-0.1595,-0.088,0.1155,0.009,-0.124,0.121,-0.013,0.066,0.0505,0.077,0.1825,0.0215,-0.1305,0.051
-0.071,-0.1575,-0.087,0.114,0.0085,-0.1225,0.121,-0.014,0.0665,0.0505,0.078,0.182,0.021,-0.1305,0.051
-0.0655,-0.154,-0.0885,0.11,0.0115,-0.1215,0.1205,-0.0135,0.067,0.051,0.079,0.1825,0.022,-0.133,0.0505
-0.063,-0.156,-0.093,0.1095,0.015,-0.125,0.117,-0.0155,0.0655,0.051,0.079,0.1815,0.024,-0.1325,0.051
-0.066,-0.159,-0.0935,0.1125,0.014,-0.1265,0.118,-0.016,0.066,0.0505,0.0775,0.1805,0.024,-0.129,0.052
-0.0705,-0.16,-0.0895,0.115,0.01,-0.125,0.119,-0.0155,0.0655,0.0505,0.079,0.1815,0.0255,-0.126,0.0525
-0.072,-0.157,-0.085,0.1145,0.0065,-0.1215,0.12,-0.0145,0.0675,0.052,0.082,0.1835,0.024,-0.129,0.052
-0.0755,-0.158,-0.082,0.117,0.0035,-0.1205,0.1205,-0.014,0.066,0.0515,0.0805,0.185,0.023,-0.128,0.052
-0.076,-0.16,-0.084,0.118,0.004,-0.122,0.1195,-0.0145,0.064,0.0495,0.079,0.1865,0.0245,-0.1225,0.0515
-0.0745,-0.162,-0.0875,0.1185,0.007,-0.125,0.121,-0.013,0.0665,0.0505,0.08,0.1875,0.0235,-0.1265,0.0505
-0.073,-0.162,-0.0885,0.1175,0.008,-0.1255,0.122,-0.0135,0.067,0.05,0.079,0.1885,0.023,-0.1315,0.052
-0.0775,-0.1625,-0.0855,0.12,0.0045,-0.124,0.1215,-0.0135,0.067,0.048,0.0785,0.1875,0.022,-0.1305,0.0525
-0.083,-0.1665,-0.0835,0.1245,0.0005,-0.125,0.12,-0.015,0.064,0.0455,0.0765,0.1845,0.0215,-0.129,0.0525
-0.084,-0.1645,-0.0805,0.124,-0.0015,-0.1225,0.118,-0.0165,0.0615,0.0445,0.074,0.183,0.022,-0.122,0.0535
-0.074,-0.157,-0.083,0.1155,0.0045,-0.12,0.115,-0.0165,0.06,0.0435,0.073,0.1815,0.023,-0.12,0.0545
-0.067,-0.1545,-0.0875,0.111,0.0105,-0.121,0.1145,-0.0195,0.0555,0.041,0.0715,0.178,0.022,-0.121,0.054
-0.066,-0.1515,-0.0855,0.109,0.01,-0.119,0.114,-0.0205,0.056,0.0395,0.068,0.1755,0.021,-0.1225,0.054
-0.06,-0.142,-0.0815,0.101,0.011,-0.112,0.115,-0.0165,0.058,0.0405,0.067,0.1775,0.0225,-0.1245,0.0545
-0.0655,-0.143,-0.078,0.1045,0.0065,-0.111,0.1165,-0.016,0.057,0.0385,0.068,0.177,0.022,-0.1205,0.054
-0.0695,-0.1435,-0.074,0.1065,0.0025,-0.109,0.119,-0.0195,0.056,0.0375,0.066,0.1755,0.0205,-0.12,0.055
-0.065,-0.14,-0.075,0.1025,0.005,-0.1075,0.1195,-0.021,0.0555,0.0385,0.0665,0.177,0.0215,-0.121,0.0555
-0.0655,-0.146,-0.0805,0.1055,0.0075,-0.1135,0.1185,-0.019,0.056,0.0385,0.0675,0.177,0.0215,-0.1235,0.0545
-0.0625,-0.1445,-0.082,0.1035,0.01,-0.1135,0.1205,-0.018,0.057,0.0415,0.0695,0.1785,0.0225,-0.128,0.0545
-0.0515,-0.138,-0.0865,0.095,0.0175,-0.1125,0.122,-0.0175,0.0595,0.044,0.0735,0.184,0.0265,-0.1255,0.0545
-0.0555,-0.14,-0.085,0.098,0.015,-0.113,0.1255,-0.014,0.062,0.0465,0.076,0.1875,0.026,-0.1225,0.053
-0.06,-0.1465,-0.086,0.1035,0.013,-0.1165,0.126,-0.014,0.0605,0.046,0.0765,0.186,0.026,-0.1255,0.0545
-0.066,-0.1555,-0.0895,0.111,0.012,-0.123,0.124,-0.0155,0.0595,0.045,0.0745,0.1845,0.0255,-0.13,0.0535
-0.0705,-0.1525,-0.082,0.111,0.006,-0.1175,0.1275,-0.014,0.0615,0.049,0.077,0.1855,0.0225,-0.131,0.0525
-0.0725,-0.1555,-0.083,0.114,0.0055,-0.1195,0.1265,-0.0165,0.0595,0.0475,0.076,0.184,0.023,-0.1255,0.052
-0.0785,-0.164,-0.0855,0.121,0.004,-0.125,0.1235,-0.0185,0.06,0.046,0.076,0.185,0.025,-0.1285,0.052
-0.07,-0.1585,-0.0885,0.1145,0.0095,-0.1235,0.1255,-0.015,0.062,0.0495,0.0795,0.1875,0.0265,-0.1315,0.053
-0.072,-0.1595,-0.0875,0.1155,0.008,-0.1235,0.126,-0.014,0.061,0.0495,0.0805,0.189,0.026,-0.132,0.052
-0.0765,-0.1565,-0.08,0.1165,0.002,-0.1185,0.1285,-0.0115,0.063,0.052,0.084,0.19,0.024,-0.131,0.051
-0.0795,-0.1595,-0.08,0.1195,0.0005,-0.12,0.1275,-0.0135,0.0605,0.0505,0.082,0.1895,0.0225,-0.1275,0.0525
-0.075,-0.162,-0.087,0.118,0.0065,-0.1245,0.122,-0.018,0.0565,0.0465,0.079,0.1875,0.023,-0.13,0.054
-0.0695,-0.1585,-0.089,0.114,0.0105,-0.124,0.1205,-0.019,0.0555,0.046,0.079,0.187,0.0235,-0.1265,0.0525
-0.0705,-0.158,-0.0875,0.114,0.0085,-0.123,0.1215,-0.02,0.0545,0.0425,0.077,0.1855,0.0195,-0.125,0.0505
-0.0655,-0.155,-0.0895,0.11,0.012,-0.1225,0.119,-0.021,0.0535,0.042,0.0745,0.1835,0.02,-0.126,0.049
-0.07,-0.158,-0.088,0.114,0.0095,-0.1235,0.1195,-0.0215,0.0525,0.041,0.073,0.1825,0.021,-0.127,0.051
-0.072,-0.1565,-0.085,0.114,0.007,-0.121,0.121,-0.021,0.0515,0.04,0.072,0.1835,0.02,-0.129,0.051
-0.0675,-0.1515,-0.084,0.1095,0.0085,-0.118,0.121,-0.0205,0.051,0.0405,0.071,0.184,0.0195,-0.1265,0.049
-0.07,-0.1485,-0.0785,0.1095,0.0045,-0.114,0.123,-0.018,0.0535,0.042,0.072,0.1865,0.0225,-0.122,0.051
-0.079,-0.1485,-0.0695,0.1135,-0.0045,-0.109,0.123,-0.0185,0.0525,0.0405,0.071,0.1865,0.0225,-0.1195,0.052
-0.078,-0.1485,-0.0705,0.113,-0.0035,-0.1095,0.12,-0.0215,0.0485,0.033,0.066,0.1785,0.0195,-0.12,0.0525
-0.067,-0.1425,-0.0755,0.1045,0.0045,-0.109,0.119,-0.0215,0.0495,0.0345,0.066,0.1785,0.0205,-0.1235,0.0535
-0.052,-0.135,-0.083,0.0935,0.016,-0.1095,0.119,-0.02,0.049,0.0365,0.068,0.1805,0.0225,-0.1215,0.055
-0.051,-0.1375,-0.087,0.0945,0.0185,-0.1125,0.1185,-0.021,0.0485,0.034,0.0675,0.1795,0.023,-0.1195,0.0545
-0.0605,-0.143,-0.082,0.102,0.011,-0.1125,0.1215,-0.0205,0.0505,0.036,0.0675,0.1795,0.019,-0.12,0.053
-0.061,-0.143,-0.082,0.102,0.0105,-0.1125,0.1215,-0.022,0.049,0.0345,0.068,0.179,0.017,-0.116,0.0535
-0.065,-0.1415,-0.0765,0.103,0.006,-0.109,0.1225,-0.022,0.05,0.037,0.071,0.1825,0.018,-0.1185,0.0525
-0.0705,-0.143,-0.0725,0.1065,0.001,-0.108,0.124,-0.02,0.051,0.039,0.073,0.185,0.0205,-0.1225,0.0525
-0.0695,-0.148,-0.0785,0.1085,0.005,-0.1135,0.1225,-0.0195,0.0505,0.039,0.0745,0.1855,0.0245,-0.128,0.0535
-0.0665,-0.1515,-0.085,0.109,0.0095,-0.1185,0.122,-0.0185,0.0505,0.041,0.0775,0.188,0.025,-0.129,0.051
-0.067,-0.152,-0.085,0.1095,0.0095,-0.119,0.1215,-0.0195,0.048,0.04,0.078,0.1895,0.0235,-0.1225,0.0505
-0.0635,-0.1515,-0.088,0.1075,0.0125,-0.12,0.1215,-0.0215,0.046,0.0375,0.076,0.1885,0.0225,-0.121,0.0525
-0.0605,-0.151,-0.0905,0.1055,0.0155,-0.121,0.122,-0.021,0.047,0.037,0.076,0.19,0.0225,-0.1225,0.052
-0.059,-0.15,-0.0905,0.1045,0.016,-0.1205,0.1225,-0.0195,0.047,0.038,0.0765,0.192,0.0225,-0.1235,0.0515
-0.063,-0.155,-0.092,0.109,0.015,-0.1235,0.1215,-0.0225,0.043,0.035,0.0735,0.1885,0.02,-0.1265,0.0505
-0.0675,-0.155,-0.0875,0.1115,0.0105,-0.1215,0.123,-0.0215,0.0435,0.0335,0.074,0.189,0.0195,-0.1255,0.051
-0.058,-0.1445,-0.0865,0.1015,0.0145,-0.116,0.126,-0.0175,0.0465,0.036,0.0775,0.194,0.022,-0.123,0.0515
-0.0535,-0.139,-0.0855,0.096,0.0165,-0.1125,0.126,-0.0185,0.045,0.0355,0.0785,0.194,0.021,-0.12,0.051
-0.0525,-0.1335,-0.081,0.093,0.0145,-0.1075,0.124,-0.0195,0.0445,0.0345,0.078,0.1955,0.0235,-0.1125,0.0535
-0.0535,-0.135,-0.0815,0.0945,0.0145,-0.1085,0.1215,-0.018,0.0425,0.0355,0.0765,0.1945,0.0245,-0.1145,0.0545
-0.0565,-0.1415,-0.085,0.099,0.0145,-0.1135,0.119,-0.0195,0.04,0.032,0.074,0.1915,0.0245,-0.1155,0.0525
-0.0625,-0.145,-0.083,0.104,0.0105,-0.114,0.1185,-0.021,0.04,0.0305,0.073,0.1915,0.0255,-0.1175,0.0545
-0.07,-0.148,-0.078,0.109,0.0045,-0.113,0.1195,-0.0215,0.0385,0.03,0.0715,0.1895,0.024,-0.1225,0.0555
-0.066,-0.1465,-0.0805,0.106,0.0075,-0.1135,0.121,-0.0215,0.037,0.028,0.0695,0.1875,0.023,-0.124,0.057
-0.064,-0.1425,-0.078,0.103,0.007,-0.1105,0.122,-0.0195,0.0385,0.0285,0.069,0.1865,0.021,-0.1225,0.0565
-0.07,-0.143,-0.073,0.1065,0.002,-0.108,0.1245,-0.0175,0.0405,0.0305,0.068,0.1845,0.0195,-0.1175,0.0555
-0.072,-0.1475,-0.0755,0.11,0.002,-0.112,0.126,-0.0175,0.0415,0.0305,0.068,0.184,0.018,-0.123,0.054
-0.0725,-0.1475,-0.075,0.11,0.0015,-0.1115,0.127,-0.0175,0.041,0.0295,0.068,0.1835,0.017,-0.125,0.0515
-0.0705,-0.147,-0.0765,0.1085,0.0035,-0.112,0.1265,-0.0145,0.0425,0.031,0.068,0.185,0.0205,-0.126,0.053
-0.064,-0.145,-0.081,0.1045,0.009,-0.1135,0.1245,-0.015,0.042,0.0305,0.0675,0.185,0.0205,-0.1235,0.0525
-0.0675,-0.1465,-0.0785,0.107,0.0055,-0.113,0.124,-0.0165,0.04,0.027,0.065,0.1825,0.0195,-0.118,0.0535
-0.0665,-0.1465,-0.08,0.1065,0.007,-0.1135,0.1215,-0.017,0.039,0.025,0.064,0.181,0.02,-0.1215,0.054
-0.061,-0.1455,-0.0845,0.1035,0.0125,-0.1155,0.1175,-0.021,0.0345,0.021,0.06,0.1765,0.018,-0.126,0.0545
-0.071,-0.1495,-0.079,0.11,0.0045,-0.1145,0.1165,-0.0225,0.031,0.0175,0.057,0.174,0.0155,-0.124,0.0535
-0.0675,-0.145,-0.0775,0.106,0.0055,-0.1115,0.117,-0.0225,0.031,0.0175,0.057,0.1745,0.0165,-0.1135,0.0505
-0.0525,-0.131,-0.0785,0.092,0.013,-0.105,0.1185,-0.018,0.033,0.02,0.058,0.176,0.0185,-0.11,0.05
-0.0495,-0.1245,-0.075,0.087,0.013,-0.1,0.119,-0.0155,0.033,0.02,0.06,0.1775,0.02,-0.109,0.0505
-0.0525,-0.1225,-0.07,0.0875,0.009,-0.0965,0.1175,-0.0165,0.031,0.017,0.0585,0.176,0.019,-0.0945,0.0505
-0.058,-0.1185,-0.06,0.088,0.001,-0.0895,0.113,-0.019,0.0295,0.0145,0.0565,0.176,0.019,-0.0885,0.0505
-0.054,-0.1165,-0.0625,0.0855,0.0045,-0.09,0.1105,-0.0225,0.025,0.01,0.053,0.1715,0.0195,-0.101,0.053
-0.05,-0.1155,-0.0655,0.0825,0.008,-0.0905,0.1105,-0.023,0.023,0.008,0.0525,0.1705,0.0205,-0.105,0.0535
-0.0585,-0.1185,-0.0595,0.0885,0.0005,-0.089,0.108,-0.0215,0.0245,0.0085,0.0525,0.171,0.022,-0.101,0.053
-0.062,-0.12,-0.058,0.091,-0.0015,-0.089,0.1105,-0.019,0.0245,0.0075,0.05,0.169,0.0205,-0.104,0.055
-0.057,-0.1145,-0.0575,0.086,0.0005,-0.086,0.114,-0.016,0.0265,0.0065,0.049,0.1675,0.018,-0.104,0.053
-0.057,-0.1115,-0.054,0.084,-0.001,-0.083,0.116,-0.013,0.0265,0.0055,0.049,0.166,0.0155,-0.101,0.0525
-0.058,-0.1135,-0.0555,0.0855,-0.001,-0.0845,0.1165,-0.011,0.027,0.006,0.0505,0.1695,0.0185,-0.0995,0.0545
-0.052,-0.112,-0.06,0.082,0.0045,-0.0865,0.116,-0.0095,0.0295,0.009,0.052,0.172,0.0225,-0.1015,0.0525
-0.0515,-0.114,-0.0625,0.0825,0.006,-0.0885,0.1155,-0.0085,0.0295,0.008,0.0525,0.1715,0.022,-0.1075,0.0525
-0.053,-0.118,-0.065,0.0855,0.006,-0.0915,0.1155,-0.0055,0.0305,0.008,0.052,0.172,0.0205,-0.111,0.0525
-0.054,-0.12,-0.066,0.087,0.006,-0.093,0.119,-0.003,0.0315,0.01,0.054,0.1735,0.019,-0.1155,0.051
-0.061,-0.128,-0.067,0.0945,0.0035,-0.0975,0.118,-0.0035,0.0295,0.008,0.0525,0.173,0.0165,-0.1155,0.052
-0.0515,-0.127,-0.0755,0.089,0.012,-0.1015,0.1175,-0.001,0.0305,0.007,0.0515,0.173,0.018,-0.114,0.052
-0.045,-0.122,-0.077,0.0835,0.0165,-0.1,0.1205,0.0055,0.033,0.0095,0.0545,0.1735,0.0175,-0.114,0.049
-0.0525,-0.127,-0.0745,0.0895,0.0115,-0.101,0.122,0.007,0.034,0.01,0.0545,0.1725,0.0135,-0.116,0.048
-0.05,-0.1275,-0.0775,0.089,0.014,-0.103,0.1225,0.0075,0.0335,0.01,0.0545,0.173,0.0145,-0.1205,0.0485
-0.054,-0.13,-0.076,0.092,0.011,-0.103,0.1225,0.01,0.0345,0.011,0.0565,0.174,0.014,-0.119,0.048
-0.0555,-0.1325,-0.077,0.094,0.011,-0.105,0.1225,0.0095,0.034,0.011,0.0575,0.1735,0.013,-0.1175,0.0465
-0.052,-0.1315,-0.0795,0.092,0.014,-0.106,0.1225,0.0115,0.033,0.01,0.0565,0.173,0.0115,-0.1215,0.046
-0.0535,-0.1365,-0.083,0.095,0.015,-0.11,0.1205,0.012,0.032,0.007,0.054,0.1715,0.014,-0.127,0.0455
-0.0575,-0.14,-0.082,0.0985,0.0125,-0.1115,0.118,0.012,0.029,0.003,0.051,0.169,0.015,-0.124,0.0445
-0.0605,-0.144,-0.084,0.1025,0.012,-0.1145,0.1165,0.0115,0.026,-0.0005,0.0485,0.167,0.012,-0.1215,0.0445
-0.054,-0.141,-0.0875,0.0975,0.017,-0.1145,0.115,0.0115,0.0255,-0.0025,0.0455,0.167,0.0135,-0.12,0.0465
-0.0555,-0.134,-0.0785,0.095,0.012,-0.1065,0.115,0.0155,0.0265,-0.0025,0.045,0.168,0.0145,-0.111,0.0465
-0.056,-0.1355,-0.0795,0.096,0.012,-0.108,0.115,0.0165,0.026,-0.005,0.044,0.1655,0.014,-0.1095,0.0435
-0.059,-0.1415,-0.0825,0.1005,0.012,-0.1125,0.1125,0.0185,0.0255,-0.0055,0.0435,0.1645,0.015,-0.114,0.046
