i,ii,iii,avr,avl,avf,v1,v2,v3,v4,v5,v6,vx,vy,vz
-0.4155,-0.7095,-0.294,0.563,-0.0605,-0.5015,-0.016,-0.003,-0.1315,-0.0815,-0.38,-0.2005,-0.0325,0.044,-0.0275
-0.414,-0.718,-0.3035,0.566,-0.0555,-0.5105,-0.0165,-0.003,-0.135,-0.086,-0.383,-0.206,-0.0345,0.043,-0.026
-0.4375,-0.737,-0.2995,0.5875,-0.069,-0.518,-0.012,-0.001,-0.1335,-0.0855,-0.3815,-0.204,-0.0375,0.041,-0.027
-0.459,-0.75,-0.291,0.605,-0.084,-0.5205,-0.008,0.0025,-0.13,-0.0815,-0.379,-0.2015,-0.041,0.034,-0.028
-0.4745,-0.76,-0.2855,0.6175,-0.0945,-0.5225,-0.0065,0.0055,-0.1285,-0.083,-0.379,-0.203,-0.039,0.0305,-0.03
-0.4765,-0.758,-0.2815,0.6175,-0.0975,-0.5195,-0.0135,-0.0025,-0.1355,-0.089,-0.3825,-0.2065,-0.0385,0.038,-0.0285
-0.473,-0.7505,-0.277,0.612,-0.098,-0.5135,-0.0195,-0.0065,-0.1375,-0.0935,-0.387,-0.2075,-0.0375,0.0415,-0.026
-0.4665,-0.7435,-0.2775,0.6055,-0.0945,-0.5105,-0.016,-0.001,-0.1335,-0.0905,-0.3835,-0.206,-0.033,0.04,-0.027
-0.455,-0.741,-0.286,0.598,-0.0845,-0.513,-0.0165,-0.002,-0.1355,-0.09,-0.384,-0.2045,-0.03,0.032,-0.0255
-0.4655,-0.754,-0.288,0.61,-0.089,-0.5205,-0.0165,-0.004,-0.136,-0.0905,-0.386,-0.2045,-0.0305,0.0325,-0.023
-0.463,-0.7595,-0.297,0.6115,-0.083,-0.528,-0.0135,-0.004,-0.1345,-0.0885,-0.3845,-0.2045,-0.0315,0.0315,-0.021
-0.454,-0.765,-0.311,0.61,-0.0715,-0.538,-0.016,-0.0055,-0.136,-0.0905,-0.388,-0.206,-0.0285,0.0265,-0.021
-0.462,-0.7685,-0.307,0.6155,-0.0775,-0.5375,-0.016,-0.0035,-0.1375,-0.089,-0.387,-0.2065,-0.0265,0.029,-0.0205
-0.4635,-0.759,-0.295,0.6115,-0.084,-0.527,-0.0145,0.002,-0.1315,-0.0825,-0.3815,-0.2035,-0.027,0.0275,-0.0185
-0.4785,-0.763,-0.2845,0.621,-0.097,-0.5235,-0.018,-0.0015,-0.1355,-0.0855,-0.388,-0.209,-0.0325,0.029,-0.018
-0.508,-0.7725,-0.265,0.6405,-0.1215,-0.5185,-0.014,-0.003,-0.1355,-0.0865,-0.388,-0.209,-0.0365,0.037,-0.0195
-0.513,-0.7695,-0.2565,0.6415,-0.128,-0.513,-0.009,0.0075,-0.124,-0.0755,-0.3795,-0.2005,-0.034,0.038,-0.0225
-0.4935,-0.769,-0.276,0.6315,-0.109,-0.5225,-0.017,-0.0005,-0.1335,-0.0815,-0.3855,-0.206,-0.0375,0.0335,-0.0195
-0.4795,-0.76,-0.2805,0.62,-0.0995,-0.52,-0.0225,-0.004,-0.136,-0.0825,-0.3855,-0.2065,-0.0285,0.0355,-0.0215
-0.49,-0.758,-0.2675,0.624,-0.111,-0.5125,-0.019,0.002,-0.1305,-0.0765,-0.381,-0.203,-0.025,0.033,-0.025
-0.4845,-0.756,-0.272,0.6205,-0.106,-0.514,-0.0215,-0.007,-0.1385,-0.0855,-0.39,-0.2135,-0.0365,0.034,-0.0225
-0.449,-0.733,-0.284,0.5915,-0.0825,-0.5085,-0.0225,-0.008,-0.141,-0.0875,-0.392,-0.216,-0.0365,0.0455,-0.024
-0.456,-0.737,-0.2815,0.597,-0.087,-0.509,-0.021,-0.0075,-0.1395,-0.0865,-0.39,-0.214,-0.037,0.049,-0.0255
-0.4735,-0.753,-0.2795,0.613,-0.097,-0.516,-0.024,-0.0145,-0.147,-0.094,-0.3985,-0.2225,-0.0425,0.0415,-0.0285
-0.466,-0.761,-0.295,0.614,-0.0855,-0.5275,-0.029,-0.021,-0.157,-0.103,-0.405,-0.2275,-0.0445,0.0355,-0.03
-0.464,-0.7655,-0.3015,0.615,-0.081,-0.5335,-0.0285,-0.0185,-0.1535,-0.099,-0.4,-0.2195,-0.039,0.0345,-0.0285
-0.4695,-0.7585,-0.289,0.614,-0.09,-0.5235,-0.02,-0.011,-0.1465,-0.0945,-0.3965,-0.2145,-0.037,0.036,-0.027
-0.4825,-0.765,-0.283,0.624,-0.1,-0.5235,-0.0215,-0.015,-0.151,-0.1,-0.4025,-0.2195,-0.039,0.04,-0.025
-0.478,-0.7655,-0.288,0.622,-0.095,-0.5265,-0.024,-0.013,-0.147,-0.093,-0.3965,-0.2125,-0.033,0.047,-0.0235
-0.4735,-0.763,-0.29,0.6185,-0.0915,-0.5265,-0.0225,-0.0105,-0.1435,-0.0865,-0.3895,-0.2035,-0.026,0.042,-0.021
-0.48,-0.774,-0.294,0.6275,-0.093,-0.534,-0.026,-0.015,-0.146,-0.0885,-0.3915,-0.204,-0.0235,0.037,-0.019
-0.4725,-0.7815,-0.309,0.627,-0.082,-0.545,-0.026,-0.0155,-0.146,-0.0895,-0.3945,-0.2055,-0.023,0.0305,-0.019
-0.472,-0.787,-0.315,0.6295,-0.0785,-0.551,-0.0265,-0.0165,-0.1475,-0.089,-0.396,-0.205,-0.023,0.0235,-0.0175
-0.484,-0.7905,-0.3065,0.6375,-0.089,-0.548,-0.029,-0.0185,-0.149,-0.0905,-0.3975,-0.2065,-0.0215,0.03,-0.0175
-0.4825,-0.775,-0.2925,0.629,-0.095,-0.5335,-0.0265,-0.019,-0.1475,-0.0885,-0.397,-0.207,-0.0235,0.0365,-0.019
-0.4825,-0.7575,-0.275,0.62,-0.1035,-0.516,-0.0115,-0.005,-0.137,-0.078,-0.3875,-0.1985,-0.0245,0.034,-0.0205
-0.483,-0.759,-0.276,0.6215,-0.1035,-0.517,-0.0115,-0.0005,-0.1345,-0.076,-0.385,-0.195,-0.0195,0.0275,-0.0205
-0.499,-0.7725,-0.2735,0.636,-0.113,-0.5225,-0.021,-0.008,-0.1405,-0.0795,-0.3885,-0.198,-0.0165,0.0255,-0.0175
-0.5215,-0.7815,-0.26,0.6515,-0.131,-0.5205,-0.024,-0.0155,-0.1465,-0.0855,-0.3905,-0.203,-0.0165,0.0275,-0.017
-0.513,-0.762,-0.249,0.638,-0.132,-0.5055,-0.013,-0.005,-0.134,-0.0735,-0.375,-0.1895,-0.0175,0.0335,-0.019
-0.52,-0.766,-0.246,0.643,-0.137,-0.5055,-0.003,0.0035,-0.124,-0.0655,-0.3675,-0.183,-0.022,0.0295,-0.022
-0.539,-0.7645,-0.2255,0.652,-0.1565,-0.495,0.0005,0.0065,-0.1225,-0.0625,-0.3625,-0.178,-0.024,0.0355,-0.0215
-0.531,-0.7575,-0.2265,0.6445,-0.152,-0.4915,0.0055,0.0125,-0.117,-0.0575,-0.3545,-0.17,-0.0215,0.037,-0.019
-0.4905,-0.7795,-0.289,0.635,-0.1005,-0.534,-0.023,-0.016,-0.145,-0.0865,-0.3835,-0.199,-0.0205,0.0315,-0.019
-0.464,-0.788,-0.3235,0.626,-0.0705,-0.5555,-0.045,-0.0395,-0.169,-0.1085,-0.404,-0.218,-0.0195,0.0355,-0.0175
-0.421,-0.7805,-0.359,0.601,-0.031,-0.5695,-0.05,-0.044,-0.173,-0.1135,-0.4055,-0.2205,-0.018,0.0285,-0.018
-0.407,-0.7705,-0.363,0.589,-0.022,-0.5665,-0.046,-0.042,-0.172,-0.1135,-0.403,-0.218,-0.0185,0.025,-0.0195
-0.446,-0.7755,-0.3295,0.611,-0.058,-0.5525,-0.0385,-0.0365,-0.1665,-0.107,-0.3995,-0.2145,-0.021,0.0245,-0.02
-0.4535,-0.7775,-0.3245,0.6155,-0.0645,-0.5505,-0.036,-0.0335,-0.1635,-0.1035,-0.396,-0.2115,-0.021,0.0195,-0.019
-0.466,-0.774,-0.308,0.6205,-0.079,-0.541,-0.0335,-0.032,-0.162,-0.1015,-0.3935,-0.21,-0.0245,0.015,-0.0165
-0.4775,-0.771,-0.294,0.6245,-0.0915,-0.5325,-0.0385,-0.0335,-0.1635,-0.103,-0.3975,-0.2145,-0.0265,0.0295,-0.0135
-0.4825,-0.769,-0.2865,0.626,-0.098,-0.5275,-0.038,-0.0345,-0.1645,-0.101,-0.396,-0.211,-0.0245,0.0365,-0.015
-0.494,-0.786,-0.292,0.6405,-0.1015,-0.5385,-0.0405,-0.0375,-0.167,-0.102,-0.3965,-0.213,-0.023,0.0335,-0.015
-0.5065,-0.7965,-0.29,0.6515,-0.1085,-0.543,-0.0405,-0.0405,-0.17,-0.106,-0.4,-0.2185,-0.0235,0.0465,-0.0115
-0.5035,-0.789,-0.285,0.6465,-0.1095,-0.537,-0.034,-0.0365,-0.1665,-0.1015,-0.3955,-0.2145,-0.023,0.038,-0.011
-0.492,-0.7805,-0.2885,0.6365,-0.102,-0.534,-0.0295,-0.031,-0.161,-0.0945,-0.3875,-0.206,-0.02,0.029,-0.0105
-0.4875,-0.771,-0.2835,0.6295,-0.102,-0.527,-0.027,-0.0305,-0.1595,-0.0915,-0.385,-0.204,-0.0195,0.0235,-0.0125
-0.5005,-0.7725,-0.272,0.637,-0.1145,-0.522,-0.026,-0.028,-0.159,-0.091,-0.385,-0.2035,-0.022,0.018,-0.0145
-0.515,-0.766,-0.251,0.6405,-0.132,-0.508,-0.0295,-0.0315,-0.1615,-0.096,-0.3905,-0.2105,-0.0305,0.0335,-0.017
-0.5165,-0.7585,-0.242,0.6375,-0.1375,-0.5,-0.033,-0.0385,-0.168,-0.1025,-0.399,-0.219,-0.035,0.0515,-0.0185
-0.5075,-0.759,-0.2515,0.6335,-0.128,-0.505,-0.0385,-0.044,-0.1755,-0.111,-0.4065,-0.225,-0.033,0.053,-0.0195
-0.477,-0.772,-0.295,0.6245,-0.091,-0.533,-0.049,-0.0515,-0.1815,-0.1175,-0.413,-0.2325,-0.033,0.0315,-0.021
-0.468,-0.787,-0.3185,0.6275,-0.075,-0.5525,-0.0485,-0.05,-0.181,-0.118,-0.4115,-0.228,-0.03,0.023,-0.0215
-0.471,-0.7725,-0.302,0.622,-0.0845,-0.537,-0.0425,-0.0455,-0.175,-0.1105,-0.4,-0.216,-0.0295,0.022,-0.021
-0.4615,-0.764,-0.3025,0.613,-0.0795,-0.533,-0.0415,-0.0455,-0.1725,-0.1075,-0.396,-0.214,-0.0325,0.021,-0.0185
-0.4635,-0.772,-0.309,0.618,-0.0775,-0.5405,-0.044,-0.05,-0.18,-0.1145,-0.402,-0.2215,-0.035,0.024,-0.0175
-0.49,-0.7815,-0.2915,0.636,-0.099,-0.536,-0.044,-0.054,-0.1825,-0.1155,-0.4035,-0.222,-0.037,0.023,-0.0165
-0.5095,-0.7875,-0.278,0.649,-0.116,-0.5325,-0.0465,-0.0575,-0.1845,-0.1205,-0.408,-0.226,-0.039,0.023,-0.0155
-0.5035,-0.7915,-0.288,0.6475,-0.1075,-0.5395,-0.044,-0.0525,-0.1805,-0.1155,-0.401,-0.222,-0.04,0.019,-0.0165
-0.521,-0.818,-0.297,0.67,-0.112,-0.557,-0.0445,-0.0525,-0.1815,-0.113,-0.3985,-0.2195,-0.0395,0.0115,-0.0145
-0.5255,-0.8275,-0.302,0.677,-0.112,-0.5645,-0.047,-0.0545,-0.1835,-0.1155,-0.399,-0.22,-0.041,0.0085,-0.01
-0.5055,-0.808,-0.3025,0.657,-0.1015,-0.555,-0.0445,-0.0505,-0.1795,-0.11,-0.3935,-0.2115,-0.04,0.0295,-0.011
-0.508,-0.8015,-0.293,0.655,-0.1075,-0.547,-0.043,-0.0525,-0.18,-0.1125,-0.398,-0.213,-0.0415,0.038,-0.0135
-0.498,-0.7915,-0.293,0.645,-0.1025,-0.542,-0.041,-0.048,-0.176,-0.1065,-0.39,-0.2075,-0.0385,0.028,-0.0145
-0.489,-0.785,-0.2955,0.637,-0.097,-0.54,-0.0395,-0.0455,-0.174,-0.1015,-0.3825,-0.201,-0.034,0.018,-0.013
-0.5095,-0.7915,-0.282,0.6505,-0.1135,-0.5365,-0.0415,-0.049,-0.177,-0.106,-0.3855,-0.2045,-0.034,0.017,-0.013
-0.5125,-0.793,-0.281,0.653,-0.116,-0.537,-0.0455,-0.0505,-0.1775,-0.106,-0.387,-0.2025,-0.0305,0.024,-0.013
-0.4935,-0.7815,-0.2885,0.638,-0.1025,-0.5345,-0.042,-0.045,-0.1725,-0.1015,-0.3815,-0.1985,-0.0285,0.027,-0.0095
-0.4915,-0.781,-0.2895,0.6365,-0.101,-0.535,-0.0445,-0.049,-0.176,-0.1035,-0.382,-0.2005,-0.0295,0.0335,-0.009
-0.494,-0.7775,-0.284,0.636,-0.105,-0.5305,-0.044,-0.0505,-0.175,-0.104,-0.3825,-0.2015,-0.032,0.0325,-0.01
-0.497,-0.7765,-0.28,0.637,-0.1085,-0.528,-0.0405,-0.045,-0.1725,-0.104,-0.3805,-0.201,-0.0315,0.0265,-0.0125
-0.5145,-0.7915,-0.277,0.653,-0.119,-0.534,-0.043,-0.0495,-0.178,-0.1075,-0.383,-0.2025,-0.0265,0.018,-0.0135
-0.517,-0.7955,-0.279,0.6565,-0.119,-0.537,-0.0495,-0.0585,-0.186,-0.116,-0.39,-0.2095,-0.026,0.0125,-0.014
-0.5035,-0.787,-0.2835,0.6455,-0.1095,-0.535,-0.055,-0.0625,-0.1915,-0.1235,-0.3955,-0.213,-0.0265,0.018,-0.014
-0.5015,-0.7765,-0.275,0.6395,-0.113,-0.5255,-0.048,-0.0555,-0.1825,-0.1145,-0.386,-0.2065,-0.0255,0.025,-0.012
-0.502,-0.781,-0.2795,0.6415,-0.1115,-0.53,-0.0415,-0.05,-0.176,-0.1085,-0.3815,-0.202,-0.0265,0.017,-0.008
-0.5025,-0.7795,-0.277,0.641,-0.113,-0.528,-0.042,-0.0495,-0.1755,-0.11,-0.383,-0.2005,-0.0285,0.0175,-0.006
-0.4895,-0.7725,-0.283,0.6315,-0.103,-0.5275,-0.0485,-0.0575,-0.181,-0.1145,-0.388,-0.206,-0.0275,0.037,-0.004
-0.4815,-0.7835,-0.3015,0.633,-0.09,-0.5425,-0.053,-0.0615,-0.1845,-0.1175,-0.391,-0.2065,-0.024,0.0435,-0.0055
-0.4885,-0.796,-0.307,0.6425,-0.0905,-0.5515,-0.0525,-0.06,-0.1825,-0.1165,-0.3885,-0.203,-0.0265,0.0285,-0.0085
-0.4925,-0.796,-0.3035,0.6445,-0.0945,-0.5495,-0.0455,-0.0555,-0.1775,-0.112,-0.3865,-0.2,-0.028,0.015,-0.003
-0.4925,-0.7915,-0.299,0.642,-0.0965,-0.545,-0.044,-0.055,-0.178,-0.111,-0.388,-0.1995,-0.029,0.021,-0.0025
-0.4935,-0.786,-0.293,0.64,-0.1,-0.5395,-0.0455,-0.0575,-0.183,-0.1155,-0.39,-0.2025,-0.0315,0.0245,-0.0035
-0.5295,-0.786,-0.2565,0.658,-0.1365,-0.521,-0.0355,-0.05,-0.176,-0.1075,-0.3815,-0.1925,-0.0315,0.0255,-0.0035
-0.563,-0.7985,-0.235,0.681,-0.164,-0.5165,-0.0295,-0.0465,-0.172,-0.102,-0.377,-0.1865,-0.0335,0.014,-0.0045
-0.5675,-0.8085,-0.2415,0.6885,-0.163,-0.525,-0.0385,-0.0535,-0.182,-0.1125,-0.3885,-0.1975,-0.033,0.006,-0.0015
-0.531,-0.7975,-0.2665,0.6645,-0.1325,-0.5315,-0.047,-0.0595,-0.1885,-0.118,-0.3955,-0.205,-0.0305,0.0105,-0.002
-0.5035,-0.7885,-0.285,0.646,-0.109,-0.5365,-0.0535,-0.0655,-0.194,-0.124,-0.4025,-0.2105,-0.0285,0.016,-0.0015
-0.491,-0.771,-0.2805,0.631,-0.1055,-0.5255,-0.0515,-0.0635,-0.192,-0.1225,-0.4005,-0.209,-0.031,0.0335,-0.002
-0.448,-0.7425,-0.2945,0.5955,-0.077,-0.5185,-0.0485,-0.0605,-0.187,-0.119,-0.394,-0.204,-0.028,0.0415,-0.002
-0.444,-0.751,-0.3075,0.5975,-0.0685,-0.529,-0.058,-0.066,-0.195,-0.1275,-0.4025,-0.211,-0.0255,0.036,-0.001
-0.476,-0.775,-0.299,0.6255,-0.0885,-0.537,-0.055,-0.0625,-0.191,-0.1235,-0.3975,-0.2065,-0.0315,0.0245,-0.003
-0.475,-0.78,-0.305,0.6275,-0.085,-0.5425,-0.0585,-0.0695,-0.195,-0.129,-0.401,-0.2085,-0.034,0.0285,-0.0035
-0.4565,-0.7735,-0.317,0.6155,-0.07,-0.545,-0.062,-0.0725,-0.199,-0.133,-0.405,-0.211,-0.03,0.029,-0.0015
-0.4665,-0.777,-0.3105,0.622,-0.078,-0.5435,-0.057,-0.0665,-0.195,-0.126,-0.3975,-0.207,-0.0265,0.027,0.0005
-0.464,-0.7715,-0.308,0.618,-0.078,-0.5395,-0.058,-0.0655,-0.194,-0.1265,-0.3955,-0.206,-0.0235,0.033,0.0015
-0.4815,-0.7805,-0.299,0.6315,-0.0915,-0.5395,-0.0615,-0.0715,-0.199,-0.132,-0.399,-0.212,-0.0255,0.0275,0.001
-0.493,-0.7815,-0.2885,0.6375,-0.1025,-0.5345,-0.063,-0.0755,-0.205,-0.1345,-0.4005,-0.215,-0.0265,0.0235,-0.0015
-0.472,-0.763,-0.2915,0.618,-0.09,-0.527,-0.0575,-0.07,-0.1975,-0.1275,-0.394,-0.207,-0.023,0.0235,-0.0015
-0.4825,-0.768,-0.286,0.6255,-0.098,-0.5265,-0.0545,-0.07,-0.2,-0.127,-0.392,-0.2075,-0.0265,0.0235,-0.0005
-0.4785,-0.769,-0.291,0.624,-0.094,-0.53,-0.0525,-0.063,-0.198,-0.1235,-0.3885,-0.2035,-0.028,0.0185,-0.001
-0.491,-0.776,-0.2845,0.634,-0.1035,-0.53,-0.052,-0.063,-0.1895,-0.116,-0.3835,-0.197,-0.0265,0.0175,-0.0035
-0.507,-0.777,-0.27,0.6425,-0.1185,-0.523,-0.045,-0.062,-0.188,-0.1115,-0.3795,-0.192,-0.028,0.019,-0.005
-0.517,-0.772,-0.255,0.645,-0.131,-0.5135,-0.038,-0.0555,-0.184,-0.107,-0.3755,-0.188,-0.0295,0.031,-0.004
-0.5105,-0.773,-0.2625,0.642,-0.124,-0.5175,-0.0385,-0.0555,-0.184,-0.1065,-0.376,-0.1885,-0.031,0.035,-0.003
-0.491,-0.773,-0.282,0.632,-0.1045,-0.527,-0.043,-0.057,-0.189,-0.11,-0.38,-0.1945,-0.0315,0.026,-0.003
-0.5195,-0.7675,-0.248,0.644,-0.1355,-0.5075,-0.04,-0.057,-0.1855,-0.1045,-0.3755,-0.19,-0.0305,0.024,-0.002
-0.507,-0.7635,-0.2565,0.636,-0.1255,-0.51,-0.041,-0.057,-0.186,-0.1055,-0.3715,-0.188,-0.03,0.022,-0.0025
-0.492,-0.7785,-0.286,0.6355,-0.103,-0.532,-0.0475,-0.0625,-0.19,-0.109,-0.3745,-0.191,-0.0285,0.014,-0.002
-0.483,-0.783,-0.3,0.6335,-0.0915,-0.541,-0.0535,-0.067,-0.1955,-0.112,-0.3765,-0.1915,-0.0245,0.005,-0.0015
-0.476,-0.7705,-0.2945,0.6235,-0.0905,-0.5325,-0.0555,-0.0695,-0.1965,-0.118,-0.38,-0.195,-0.0255,0.0155,-0.003
-0.494,-0.771,-0.277,0.633,-0.1085,-0.524,-0.057,-0.073,-0.199,-0.1215,-0.3835,-0.197,-0.028,0.024,-0.0015
-0.4895,-0.773,-0.2835,0.6315,-0.103,-0.528,-0.06,-0.0745,-0.2045,-0.125,-0.3855,-0.199,-0.0295,0.029,-0.0025
-0.4785,-0.7655,-0.287,0.6225,-0.096,-0.526,-0.0535,-0.0715,-0.2005,-0.1235,-0.3825,-0.1935,-0.0285,0.0305,-0.0065
-0.476,-0.779,-0.303,0.628,-0.0865,-0.5405,-0.059,-0.0765,-0.2065,-0.13,-0.3895,-0.2005,-0.03,0.0275,-0.0075
-0.5055,-0.7965,-0.2905,0.651,-0.1075,-0.543,-0.059,-0.0755,-0.2065,-0.1295,-0.386,-0.1945,-0.0275,0.026,-0.005
-0.522,-0.792,-0.27,0.6575,-0.126,-0.531,-0.0505,-0.0695,-0.1985,-0.1215,-0.3775,-0.1855,-0.0285,0.025,0.0005
-0.526,-0.7945,-0.2685,0.6605,-0.129,-0.531,-0.0525,-0.07,-0.1995,-0.123,-0.3845,-0.1955,-0.0335,0.0265,0.002
-0.526,-0.7985,-0.2725,0.6625,-0.1265,-0.535,-0.051,-0.068,-0.1985,-0.121,-0.382,-0.193,-0.029,0.02,0.0
-0.5165,-0.7905,-0.274,0.6535,-0.1215,-0.532,-0.0495,-0.0685,-0.198,-0.119,-0.3795,-0.189,-0.028,0.014,0.001
-0.501,-0.779,-0.278,0.64,-0.1115,-0.528,-0.0525,-0.0715,-0.2,-0.121,-0.3835,-0.192,-0.0285,0.01,0.006
-0.473,-0.779,-0.306,0.6265,-0.0835,-0.542,-0.0595,-0.078,-0.2055,-0.126,-0.389,-0.199,-0.029,0.0155,0.005
-0.4635,-0.787,-0.3235,0.6255,-0.07,-0.555,-0.0675,-0.086,-0.214,-0.1325,-0.396,-0.2075,-0.0285,0.0185,0.001
-0.4705,-0.7825,-0.312,0.627,-0.0795,-0.547,-0.069,-0.0875,-0.2165,-0.1345,-0.3985,-0.211,-0.03,0.026,-0.0015
-0.5025,-0.7755,-0.273,0.6395,-0.115,-0.524,-0.0655,-0.0845,-0.216,-0.1305,-0.398,-0.206,-0.031,0.033,-0.003
-0.525,-0.771,-0.246,0.6485,-0.1395,-0.5085,-0.0625,-0.081,-0.2145,-0.1275,-0.395,-0.205,-0.029,0.0325,-0.001
-0.5255,-0.7715,-0.246,0.649,-0.14,-0.509,-0.0595,-0.077,-0.209,-0.121,-0.387,-0.199,-0.028,0.0335,-0.0005
-0.521,-0.764,-0.243,0.643,-0.139,-0.503,-0.055,-0.07,-0.202,-0.1155,-0.383,-0.195,-0.028,0.0305,0.0
-0.505,-0.7575,-0.2525,0.6315,-0.1265,-0.5045,-0.0585,-0.074,-0.205,-0.1215,-0.388,-0.2035,-0.027,0.0315,0.0035
-0.489,-0.759,-0.27,0.624,-0.1095,-0.514,-0.0575,-0.075,-0.2045,-0.1195,-0.3845,-0.194,-0.0215,0.0215,0.0045
-0.4635,-0.7575,-0.294,0.611,-0.085,-0.5255,-0.061,-0.078,-0.2075,-0.124,-0.388,-0.1975,-0.0225,0.017,0.001
-0.4435,-0.749,-0.3055,0.5965,-0.069,-0.527,-0.072,-0.09,-0.2185,-0.136,-0.3975,-0.2085,-0.0235,0.032,0.0005
-0.462,-0.745,-0.283,0.6035,-0.0895,-0.5135,-0.0665,-0.0835,-0.217,-0.1345,-0.396,-0.206,-0.028,0.0365,0.0015
-0.4835,-0.764,-0.2805,0.6245,-0.1015,-0.522,-0.0675,-0.0875,-0.221,-0.139,-0.3945,-0.209,-0.0315,0.0285,0.0025
-0.477,-0.7725,-0.296,0.6255,-0.0905,-0.534,-0.068,-0.0915,-0.2245,-0.1395,-0.393,-0.206,-0.031,0.0275,0.0035
-0.4785,-0.772,-0.2935,0.6255,-0.0925,-0.5325,-0.0635,-0.086,-0.2195,-0.138,-0.3955,-0.205,-0.034,0.0285,0.006
-0.4925,-0.777,-0.285,0.635,-0.104,-0.531,-0.0655,-0.0865,-0.2185,-0.1385,-0.3955,-0.2035,-0.031,0.0275,0.0085
-0.4945,-0.7885,-0.2935,0.642,-0.1005,-0.5405,-0.068,-0.0875,-0.2195,-0.1385,-0.3975,-0.2045,-0.03,0.031,0.004
-0.49,-0.787,-0.297,0.6385,-0.0965,-0.5415,-0.0675,-0.089,-0.219,-0.138,-0.397,-0.2045,-0.031,0.0315,0.0055
-0.489,-0.7825,-0.294,0.636,-0.0975,-0.538,-0.065,-0.087,-0.214,-0.1335,-0.3925,-0.201,-0.03,0.021,0.0085
-0.478,-0.789,-0.311,0.6335,-0.0835,-0.5495,-0.0695,-0.091,-0.219,-0.1395,-0.399,-0.2055,-0.0305,0.0175,0.009
-0.473,-0.779,-0.306,0.626,-0.0835,-0.542,-0.067,-0.09,-0.2195,-0.1385,-0.3995,-0.204,-0.03,0.022,0.0105
-0.485,-0.777,-0.2925,0.6315,-0.0965,-0.5345,-0.0665,-0.0895,-0.217,-0.135,-0.399,-0.205,-0.0295,0.0265,0.0095
-0.495,-0.78,-0.285,0.638,-0.105,-0.532,-0.069,-0.091,-0.22,-0.137,-0.403,-0.2095,-0.031,0.0345,0.008
-0.504,-0.7835,-0.2795,0.6435,-0.112,-0.531,-0.0675,-0.088,-0.2195,-0.136,-0.403,-0.211,-0.033,0.0295,0.009
-0.504,-0.787,-0.2825,0.646,-0.1105,-0.5345,-0.07,-0.0925,-0.2255,-0.1425,-0.4075,-0.218,-0.0345,0.026,0.011
-0.503,-0.7825,-0.28,0.643,-0.1115,-0.531,-0.072,-0.096,-0.2295,-0.1465,-0.4135,-0.224,-0.0365,0.0285,0.011
-0.5075,-0.785,-0.2775,0.6465,-0.115,-0.531,-0.074,-0.0985,-0.2305,-0.1485,-0.416,-0.2285,-0.039,0.022,0.013
-0.4985,-0.777,-0.2785,0.638,-0.11,-0.5275,-0.073,-0.0965,-0.2275,-0.145,-0.4115,-0.226,-0.0375,0.0165,0.0135
-0.4925,-0.7725,-0.2795,0.633,-0.1065,-0.526,-0.071,-0.0925,-0.223,-0.141,-0.4055,-0.22,-0.0355,0.0205,0.009
-0.5025,-0.775,-0.2725,0.639,-0.115,-0.5235,-0.0695,-0.091,-0.222,-0.1405,-0.404,-0.2175,-0.0345,0.028,0.0075
-0.494,-0.7605,-0.267,0.6275,-0.1135,-0.5135,-0.063,-0.0865,-0.218,-0.137,-0.399,-0.2105,-0.034,0.024,0.0075
-0.4945,-0.761,-0.2665,0.628,-0.114,-0.5135,-0.0585,-0.0825,-0.214,-0.133,-0.392,-0.205,-0.0365,0.0245,0.006
-0.5185,-0.789,-0.2705,0.654,-0.124,-0.5295,-0.0625,-0.0855,-0.217,-0.1355,-0.3935,-0.2065,-0.0375,0.0305,0.0065
-0.522,-0.81,-0.288,0.6665,-0.117,-0.549,-0.0655,-0.09,-0.2215,-0.141,-0.3985,-0.2085,-0.038,0.0255,0.0055
-0.5125,-0.7985,-0.286,0.6555,-0.113,-0.542,-0.066,-0.0915,-0.224,-0.1435,-0.4015,-0.2105,-0.038,0.0285,0.008
-0.515,-0.7905,-0.276,0.653,-0.1195,-0.533,-0.0685,-0.0965,-0.228,-0.1485,-0.405,-0.2105,-0.037,0.028,0.01
-0.5255,-0.799,-0.2735,0.6625,-0.126,-0.536,-0.068,-0.094,-0.2245,-0.1445,-0.4025,-0.207,-0.0335,0.021,0.014
-0.5245,-0.794,-0.2695,0.6595,-0.1275,-0.5315,-0.066,-0.089,-0.22,-0.138,-0.3975,-0.2025,-0.031,0.0185,0.012
-0.5155,-0.7875,-0.272,0.6515,-0.122,-0.529,-0.0635,-0.0865,-0.217,-0.1355,-0.394,-0.1975,-0.0285,0.013,0.0085
-0.512,-0.7905,-0.2785,0.6515,-0.117,-0.5345,-0.063,-0.0865,-0.217,-0.135,-0.3935,-0.1975,-0.0265,0.0145,0.012
-0.518,-0.7995,-0.2815,0.659,-0.118,-0.5405,-0.0675,-0.0905,-0.222,-0.1385,-0.3965,-0.2,-0.027,0.026,0.013
-0.5205,-0.8035,-0.283,0.662,-0.1185,-0.543,-0.07,-0.093,-0.224,-0.141,-0.402,-0.202,-0.0265,0.024,0.015
-0.5185,-0.804,-0.286,0.6615,-0.116,-0.545,-0.0695,-0.093,-0.2255,-0.1415,-0.4035,-0.205,-0.0295,0.012,0.0135
-0.5175,-0.8075,-0.29,0.6625,-0.1135,-0.549,-0.075,-0.0975,-0.231,-0.1445,-0.406,-0.207,-0.0295,0.013,0.013
-0.512,-0.804,-0.292,0.658,-0.11,-0.548,-0.0755,-0.0985,-0.231,-0.146,-0.406,-0.208,-0.029,0.0125,0.014
-0.5115,-0.804,-0.292,0.658,-0.11,-0.548,-0.0735,-0.098,-0.2305,-0.1455,-0.406,-0.208,-0.0315,0.0105,0.0135
-0.5085,-0.8105,-0.302,0.6595,-0.103,-0.556,-0.0715,-0.0945,-0.2285,-0.143,-0.4025,-0.2055,-0.0325,0.005,0.0135
-0.504,-0.793,-0.2885,0.649,-0.1075,-0.5405,-0.067,-0.089,-0.2225,-0.1395,-0.3945,-0.2,-0.0335,0.011,0.013
-0.498,-0.7695,-0.2715,0.634,-0.1135,-0.52,-0.068,-0.091,-0.2235,-0.1415,-0.3955,-0.1985,-0.0335,0.03,0.0135
-0.4845,-0.766,-0.2815,0.6255,-0.1015,-0.5235,-0.0665,-0.0905,-0.222,-0.139,-0.3915,-0.1965,-0.0335,0.031,0.012
-0.4905,-0.768,-0.2775,0.6295,-0.1065,-0.5225,-0.063,-0.0885,-0.2205,-0.138,-0.3885,-0.1925,-0.0335,0.0295,0.0115
-0.4915,-0.773,-0.2815,0.6325,-0.105,-0.527,-0.065,-0.0925,-0.223,-0.1425,-0.392,-0.1955,-0.033,0.0225,0.0125
-0.491,-0.772,-0.281,0.632,-0.105,-0.5265,-0.067,-0.0925,-0.224,-0.1415,-0.388,-0.194,-0.032,0.03,0.013
-0.4955,-0.762,-0.267,0.629,-0.114,-0.5145,-0.0645,-0.088,-0.2205,-0.1385,-0.3815,-0.189,-0.0295,0.0445,0.013
-0.4905,-0.7575,-0.267,0.624,-0.1115,-0.512,-0.064,-0.0895,-0.2185,-0.1385,-0.3815,-0.1885,-0.028,0.044,0.014
-0.495,-0.764,-0.2695,0.6295,-0.1125,-0.5165,-0.07,-0.0955,-0.225,-0.146,-0.3885,-0.1945,-0.027,0.056,0.0125
-0.497,-0.7665,-0.2695,0.632,-0.1135,-0.518,-0.0655,-0.0915,-0.2235,-0.1455,-0.3875,-0.195,-0.0285,0.0445,0.006
-0.513,-0.763,-0.2495,0.6385,-0.132,-0.506,-0.05,-0.077,-0.2085,-0.128,-0.3725,-0.181,-0.0295,0.0225,0.006
-0.497,-0.771,-0.274,0.6345,-0.1115,-0.5225,-0.059,-0.085,-0.216,-0.135,-0.382,-0.191,-0.0285,0.0205,0.012
-0.4765,-0.787,-0.3105,0.632,-0.083,-0.5485,-0.0755,-0.1015,-0.233,-0.1515,-0.401,-0.2085,-0.0285,0.025,0.0145
-0.5055,-0.801,-0.2955,0.6535,-0.105,-0.548,-0.078,-0.1035,-0.2355,-0.1525,-0.403,-0.21,-0.029,0.029,0.0135
-0.4955,-0.7775,-0.2815,0.6365,-0.107,-0.529,-0.07,-0.0955,-0.2285,-0.145,-0.3965,-0.2005,-0.0295,0.0265,0.0105
-0.485,-0.756,-0.2705,0.6205,-0.107,-0.513,-0.062,-0.09,-0.222,-0.1365,-0.39,-0.192,-0.0315,0.0275,0.0085
-0.498,-0.761,-0.263,0.63,-0.1175,-0.512,-0.0675,-0.095,-0.2275,-0.1425,-0.397,-0.2005,-0.0345,0.032,0.011
-0.5015,-0.758,-0.2565,0.63,-0.123,-0.507,-0.0685,-0.0965,-0.2305,-0.145,-0.4,-0.202,-0.0345,0.0375,0.011
-0.495,-0.7575,-0.2625,0.6265,-0.1165,-0.5095,-0.07,-0.096,-0.232,-0.1435,-0.3985,-0.2,-0.031,0.035,0.0115
-0.503,-0.773,-0.27,0.6385,-0.1165,-0.521,-0.0745,-0.0955,-0.2355,-0.1475,-0.4015,-0.203,-0.0285,0.0345,0.014
-0.521,-0.7855,-0.2645,0.6535,-0.128,-0.525,-0.076,-0.102,-0.2375,-0.1475,-0.4015,-0.203,-0.0285,0.041,0.012
-0.508,-0.769,-0.261,0.639,-0.1235,-0.515,-0.0735,-0.1035,-0.236,-0.146,-0.4,-0.2005,-0.031,0.0395,0.0105
-0.5025,-0.7655,-0.2635,0.634,-0.1195,-0.514,-0.074,-0.1005,-0.236,-0.1465,-0.3985,-0.1985,-0.0295,0.041,0.01
-0.501,-0.7655,-0.2645,0.6335,-0.1185,-0.515,-0.07,-0.0975,-0.231,-0.142,-0.392,-0.195,-0.0315,0.042,0.0115
-0.4835,-0.748,-0.265,0.616,-0.1095,-0.506,-0.0615,-0.089,-0.2225,-0.133,-0.384,-0.1855,-0.0325,0.0405,0.011
-0.4735,-0.7365,-0.2635,0.605,-0.105,-0.5,-0.0565,-0.084,-0.2175,-0.128,-0.3775,-0.178,-0.03,0.036,0.0125
-0.4805,-0.7405,-0.2605,0.611,-0.11,-0.5005,-0.0575,-0.0845,-0.2175,-0.1285,-0.378,-0.1795,-0.03,0.034,0.0135
-0.4815,-0.7555,-0.274,0.619,-0.1035,-0.5145,-0.0655,-0.0905,-0.226,-0.136,-0.3845,-0.184,-0.0285,0.034,0.012
-0.4845,-0.7585,-0.2735,0.6215,-0.1055,-0.5155,-0.069,-0.0935,-0.229,-0.1405,-0.386,-0.186,-0.0285,0.0315,0.013
-0.5,-0.7585,-0.2585,0.6295,-0.121,-0.5085,-0.067,-0.093,-0.2285,-0.1395,-0.385,-0.1825,-0.0265,0.0255,0.012
-0.5115,-0.763,-0.2515,0.6375,-0.13,-0.507,-0.0595,-0.086,-0.2205,-0.132,-0.3785,-0.174,-0.0245,0.0175,0.0095
-0.527,-0.7675,-0.2405,0.6475,-0.143,-0.5035,-0.051,-0.077,-0.211,-0.1225,-0.372,-0.1705,-0.0265,0.019,0.0135
-0.565,-0.77,-0.205,0.668,-0.18,-0.4875,-0.0395,-0.0655,-0.2005,-0.1095,-0.362,-0.1585,-0.028,0.017,0.0185
-0.59,-0.773,-0.1825,0.682,-0.204,-0.4775,-0.031,-0.057,-0.1915,-0.0985,-0.349,-0.144,-0.026,0.023,0.019
-0.556,-0.771,-0.215,0.6635,-0.1705,-0.4925,-0.037,-0.064,-0.199,-0.1045,-0.3565,-0.1525,-0.0265,0.0245,0.0175
-0.514,-0.7705,-0.2565,0.6425,-0.129,-0.5135,-0.0535,-0.0805,-0.2165,-0.12,-0.3745,-0.171,-0.029,0.021,0.015
-0.4805,-0.778,-0.297,0.6295,-0.0915,-0.5375,-0.073,-0.101,-0.237,-0.1405,-0.396,-0.1905,-0.0295,0.025,0.0135
-0.449,-0.777,-0.328,0.613,-0.0605,-0.552,-0.0865,-0.115,-0.2525,-0.1575,-0.413,-0.2075,-0.0295,0.025,0.0145
-0.428,-0.774,-0.346,0.6015,-0.041,-0.56,-0.0925,-0.122,-0.259,-0.162,-0.417,-0.21,-0.026,0.0275,0.0155
-0.4075,-0.7685,-0.3615,0.5885,-0.023,-0.565,-0.0985,-0.1245,-0.2615,-0.166,-0.4195,-0.2125,-0.0245,0.028,0.015
-0.4245,-0.7625,-0.3385,0.5935,-0.043,-0.55,-0.0925,-0.1195,-0.2565,-0.162,-0.4145,-0.21,-0.0285,0.0315,0.014
-0.458,-0.7625,-0.3045,0.6105,-0.0765,-0.533,-0.079,-0.107,-0.2455,-0.1505,-0.4045,-0.1965,-0.028,0.029,0.014
-0.475,-0.7695,-0.2945,0.6225,-0.09,-0.532,-0.0785,-0.104,-0.2425,-0.1495,-0.4015,-0.194,-0.025,0.0295,0.0145
-0.4865,-0.78,-0.294,0.6335,-0.0965,-0.5365,-0.082,-0.1085,-0.245,-0.151,-0.402,-0.196,-0.025,0.028,0.014
-0.4795,-0.7695,-0.2905,0.625,-0.0945,-0.53,-0.081,-0.106,-0.2445,-0.1515,-0.401,-0.1935,-0.0255,0.034,0.0155
-0.4735,-0.7555,-0.282,0.6145,-0.096,-0.5185,-0.076,-0.102,-0.24,-0.1495,-0.397,-0.1895,-0.025,0.049,0.018
-0.48,-0.764,-0.2845,0.622,-0.098,-0.524,-0.074,-0.1005,-0.2375,-0.1485,-0.3965,-0.187,-0.0215,0.0405,0.017
-0.4915,-0.7755,-0.2845,0.634,-0.1035,-0.53,-0.073,-0.1,-0.2365,-0.149,-0.3965,-0.1865,-0.023,0.0405,0.015
-0.4975,-0.7685,-0.271,0.633,-0.113,-0.5195,-0.073,-0.101,-0.2355,-0.1485,-0.3965,-0.189,-0.029,0.0495,0.0145
-0.4915,-0.756,-0.265,0.624,-0.1135,-0.51,-0.0695,-0.096,-0.2315,-0.1435,-0.392,-0.1845,-0.0285,0.0455,0.016
-0.4815,-0.7565,-0.2745,0.619,-0.1035,-0.5155,-0.0635,-0.0875,-0.223,-0.1355,-0.384,-0.1755,-0.024,0.03,0.0145
-0.482,-0.7625,-0.2805,0.6225,-0.101,-0.521,-0.058,-0.083,-0.217,-0.1305,-0.381,-0.1715,-0.025,0.0135,0.014
-0.484,-0.77,-0.2865,0.627,-0.099,-0.528,-0.052,-0.079,-0.213,-0.124,-0.3775,-0.1695,-0.026,0.005,0.018
-0.4765,-0.771,-0.2945,0.624,-0.091,-0.5325,-0.055,-0.079,-0.215,-0.127,-0.379,-0.1715,-0.025,0.0095,0.0215
-0.4845,-0.7735,-0.2895,0.629,-0.0975,-0.531,-0.059,-0.084,-0.2185,-0.1305,-0.3865,-0.1755,-0.028,0.0195,0.023
-0.48,-0.776,-0.2965,0.628,-0.0915,-0.536,-0.0685,-0.0935,-0.2265,-0.136,-0.3925,-0.183,-0.0295,0.0195,0.02
-0.481,-0.7635,-0.282,0.6225,-0.0995,-0.5225,-0.0785,-0.1045,-0.2375,-0.147,-0.4015,-0.1915,-0.0285,0.028,0.018
-0.4995,-0.7435,-0.244,0.622,-0.1275,-0.4935,-0.082,-0.11,-0.243,-0.1525,-0.4125,-0.2005,-0.0305,0.046,0.0185
-0.492,-0.7305,-0.2385,0.6115,-0.1265,-0.484,-0.0795,-0.108,-0.241,-0.151,-0.411,-0.1985,-0.029,0.053,0.0175
-0.4975,-0.7445,-0.247,0.621,-0.1255,-0.4955,-0.0755,-0.102,-0.236,-0.1465,-0.405,-0.1915,-0.0265,0.0495,0.0195
-0.5005,-0.759,-0.259,0.63,-0.1205,-0.509,-0.0765,-0.103,-0.2355,-0.149,-0.4055,-0.189,-0.026,0.05,0.0205
-0.482,-0.7575,-0.2755,0.62,-0.103,-0.516,-0.079,-0.1075,-0.2395,-0.1525,-0.41,-0.1915,-0.0265,0.048,0.0185
-0.477,-0.7575,-0.2805,0.617,-0.0985,-0.5185,-0.082,-0.108,-0.2405,-0.153,-0.4115,-0.1975,-0.0295,0.041,0.0155
-0.4705,-0.7405,-0.27,0.606,-0.1005,-0.505,-0.072,-0.097,-0.23,-0.1445,-0.4,-0.1855,-0.0275,0.045,0.0165
-0.477,-0.7375,-0.2605,0.608,-0.1085,-0.499,-0.069,-0.094,-0.23,-0.144,-0.399,-0.1835,-0.0275,0.047,0.0175
-0.4945,-0.7575,-0.263,0.626,-0.116,-0.5095,-0.0765,-0.1015,-0.237,-0.1515,-0.4045,-0.1925,-0.03,0.0455,0.0185
-0.5095,-0.7725,-0.2635,0.6415,-0.123,-0.518,-0.0825,-0.107,-0.241,-0.156,-0.4065,-0.192,-0.0265,0.0465,0.0205
-0.498,-0.76,-0.2625,0.6295,-0.1175,-0.511,-0.0815,-0.1065,-0.24,-0.154,-0.4035,-0.187,-0.023,0.044,0.021
-0.461,-0.7215,-0.2605,0.5915,-0.1005,-0.4905,-0.065,-0.091,-0.2225,-0.1395,-0.3885,-0.1725,-0.0245,0.0505,0.0225
-0.4705,-0.7275,-0.257,0.599,-0.107,-0.492,-0.065,-0.09,-0.2215,-0.1405,-0.389,-0.1725,-0.0245,0.0485,0.0235
-0.499,-0.748,-0.249,0.6235,-0.125,-0.4985,-0.069,-0.0955,-0.227,-0.144,-0.393,-0.1765,-0.024,0.0355,0.023
-0.5015,-0.7465,-0.2445,0.624,-0.1285,-0.495,-0.067,-0.097,-0.2275,-0.1435,-0.3945,-0.1775,-0.0255,0.038,0.0235
-0.4975,-0.7525,-0.2555,0.625,-0.121,-0.504,-0.0725,-0.1025,-0.233,-0.149,-0.4,-0.1815,-0.023,0.0415,0.026
-0.4845,-0.7545,-0.27,0.62,-0.1075,-0.512,-0.0765,-0.104,-0.2365,-0.149,-0.403,-0.185,-0.022,0.0365,0.025
-0.484,-0.7545,-0.27,0.6195,-0.107,-0.512,-0.078,-0.1065,-0.2385,-0.151,-0.4065,-0.1885,-0.0245,0.0345,0.022
-0.4825,-0.752,-0.27,0.6175,-0.1065,-0.5105,-0.0815,-0.1115,-0.2425,-0.158,-0.4125,-0.194,-0.0275,0.0455,0.0235
-0.4685,-0.7495,-0.281,0.6095,-0.094,-0.515,-0.08,-0.1105,-0.2425,-0.1555,-0.4115,-0.193,-0.0265,0.0475,0.024
-0.458,-0.742,-0.284,0.6,-0.087,-0.513,-0.076,-0.1055,-0.237,-0.149,-0.405,-0.187,-0.0245,0.0435,0.025
-0.449,-0.731,-0.282,0.5905,-0.0835,-0.5065,-0.076,-0.1035,-0.235,-0.147,-0.403,-0.186,-0.023,0.043,0.0245
-0.484,-0.7395,-0.2555,0.612,-0.1145,-0.4975,-0.068,-0.0955,-0.2265,-0.139,-0.395,-0.1775,-0.0235,0.037,0.0225
-0.5085,-0.7445,-0.236,0.627,-0.1365,-0.49,-0.067,-0.096,-0.226,-0.1405,-0.395,-0.176,-0.028,0.04,0.0245
-0.4935,-0.7445,-0.2515,0.619,-0.121,-0.498,-0.0695,-0.0975,-0.229,-0.145,-0.3965,-0.1775,-0.027,0.044,0.0255
-0.495,-0.7455,-0.2505,0.6205,-0.122,-0.498,-0.0735,-0.1,-0.23,-0.1475,-0.4005,-0.181,-0.0255,0.0485,0.026
-0.477,-0.738,-0.261,0.608,-0.108,-0.499,-0.08,-0.1075,-0.2375,-0.1545,-0.4065,-0.187,-0.024,0.0555,0.0255
-0.462,-0.729,-0.267,0.596,-0.0975,-0.498,-0.078,-0.1055,-0.236,-0.152,-0.4035,-0.1835,-0.023,0.0515,0.026
-0.471,-0.7245,-0.253,0.598,-0.109,-0.4885,-0.0735,-0.1,-0.231,-0.1485,-0.3985,-0.1785,-0.0235,0.043,0.0285
-0.474,-0.7345,-0.2605,0.6045,-0.1065,-0.497,-0.074,-0.1005,-0.232,-0.1495,-0.399,-0.179,-0.0215,0.0365,0.028
-0.474,-0.7445,-0.2705,0.6095,-0.1015,-0.5075,-0.078,-0.1065,-0.2365,-0.153,-0.404,-0.183,-0.022,0.032,0.029
-0.481,-0.752,-0.2705,0.617,-0.1055,-0.511,-0.0785,-0.1095,-0.239,-0.158,-0.4065,-0.1865,-0.024,0.0435,0.03
-0.5045,-0.7695,-0.265,0.6375,-0.12,-0.517,-0.084,-0.115,-0.245,-0.1635,-0.412,-0.1945,-0.028,0.056,0.0275
-0.52,-0.7825,-0.2625,0.6515,-0.129,-0.522,-0.088,-0.1185,-0.2495,-0.166,-0.417,-0.201,-0.027,0.052,0.0275
-0.52,-0.782,-0.2615,0.651,-0.1295,-0.5215,-0.088,-0.1175,-0.2485,-0.1635,-0.4135,-0.197,-0.023,0.05,0.0265
-0.5125,-0.7645,-0.2515,0.639,-0.1305,-0.508,-0.083,-0.1135,-0.2435,-0.1595,-0.408,-0.191,-0.024,0.0515,0.026
-0.4795,-0.7355,-0.256,0.608,-0.112,-0.4955,-0.0725,-0.1035,-0.2325,-0.1485,-0.399,-0.1835,-0.026,0.0495,0.027
-0.473,-0.713,-0.24,0.593,-0.1165,-0.476,-0.058,-0.0885,-0.2175,-0.1315,-0.3855,-0.168,-0.0255,0.0445,0.026
-0.509,-0.72,-0.211,0.6145,-0.149,-0.465,-0.051,-0.0795,-0.2115,-0.1265,-0.3795,-0.1625,-0.026,0.0395,0.0235
-0.5275,-0.7325,-0.2055,0.6305,-0.161,-0.4685,-0.055,-0.083,-0.2175,-0.131,-0.3845,-0.1675,-0.028,0.038,0.0225
-0.531,-0.734,-0.203,0.633,-0.164,-0.468,-0.0585,-0.0875,-0.2195,-0.1335,-0.387,-0.171,-0.027,0.0385,0.023
-0.5335,-0.736,-0.2025,0.635,-0.1655,-0.469,-0.0585,-0.0865,-0.2205,-0.134,-0.3865,-0.172,-0.0255,0.0365,0.024
-0.4995,-0.726,-0.2265,0.613,-0.1365,-0.476,-0.0605,-0.09,-0.2245,-0.137,-0.3885,-0.1755,-0.027,0.0335,0.023
-0.4365,-0.73,-0.2935,0.5835,-0.0715,-0.5115,-0.0785,-0.109,-0.2425,-0.155,-0.406,-0.1935,-0.029,0.0285,0.0245
-0.418,-0.742,-0.3245,0.58,-0.0465,-0.533,-0.0855,-0.114,-0.247,-0.1615,-0.4135,-0.1975,-0.0265,0.026,0.025
-0.4245,-0.7425,-0.318,0.584,-0.053,-0.53,-0.0845,-0.112,-0.244,-0.161,-0.411,-0.195,-0.024,0.0395,0.021
-0.4555,-0.7485,-0.293,0.6025,-0.0815,-0.5205,-0.0825,-0.1115,-0.2435,-0.161,-0.4115,-0.1955,-0.0255,0.052,0.0205
-0.472,-0.7415,-0.27,0.607,-0.101,-0.5055,-0.072,-0.102,-0.233,-0.1515,-0.403,-0.187,-0.0265,0.0425,0.022
-0.453,-0.732,-0.279,0.593,-0.087,-0.5055,-0.0735,-0.102,-0.2335,-0.1525,-0.403,-0.1885,-0.0265,0.0325,0.025
-0.459,-0.7305,-0.272,0.595,-0.0935,-0.501,-0.0705,-0.0985,-0.2305,-0.15,-0.398,-0.185,-0.029,0.041,0.0275
-0.463,-0.727,-0.2635,0.595,-0.0995,-0.495,-0.0655,-0.094,-0.224,-0.1455,-0.391,-0.1805,-0.0305,0.0505,0.0285
-0.466,-0.7315,-0.2655,0.599,-0.1,-0.498,-0.0665,-0.0945,-0.226,-0.147,-0.3925,-0.1795,-0.0295,0.044,0.0285
-0.4775,-0.7405,-0.263,0.609,-0.1075,-0.5015,-0.0705,-0.0975,-0.231,-0.1495,-0.395,-0.1805,-0.0285,0.0375,0.027
-0.4735,-0.734,-0.2605,0.604,-0.1065,-0.497,-0.075,-0.1005,-0.234,-0.152,-0.398,-0.1815,-0.0285,0.044,0.028
-0.466,-0.717,-0.251,0.592,-0.108,-0.484,-0.0775,-0.1035,-0.2365,-0.1555,-0.4045,-0.1865,-0.0305,0.0525,0.026
-0.4705,-0.7075,-0.237,0.589,-0.1165,-0.472,-0.0785,-0.1045,-0.238,-0.1565,-0.407,-0.189,-0.0305,0.059,0.027
-0.47,-0.721,-0.2505,0.5955,-0.11,-0.4855,-0.0735,-0.1,-0.233,-0.15,-0.3985,-0.182,-0.0275,0.0575,0.0315
-0.4745,-0.738,-0.2635,0.6065,-0.1055,-0.501,-0.0715,-0.0985,-0.2315,-0.1485,-0.398,-0.1825,-0.0305,0.0485,0.0305
-0.4745,-0.7355,-0.261,0.605,-0.1065,-0.498,-0.069,-0.0955,-0.229,-0.1465,-0.399,-0.1815,-0.031,0.042,0.0275
-0.4765,-0.737,-0.261,0.607,-0.1075,-0.499,-0.069,-0.0985,-0.23,-0.147,-0.3995,-0.1825,-0.0285,0.042,0.0275
-0.4655,-0.722,-0.2565,0.594,-0.1045,-0.489,-0.07,-0.0985,-0.2305,-0.1465,-0.399,-0.181,-0.03,0.046,0.028
-0.4625,-0.716,-0.254,0.5895,-0.1045,-0.4845,-0.07,-0.0975,-0.231,-0.1465,-0.3995,-0.181,-0.032,0.0495,0.028
-0.4785,-0.727,-0.2485,0.603,-0.115,-0.4875,-0.0725,-0.101,-0.2355,-0.151,-0.404,-0.1845,-0.0325,0.0465,0.027
-0.475,-0.7145,-0.2395,0.595,-0.1175,-0.477,-0.0695,-0.097,-0.2315,-0.146,-0.399,-0.1805,-0.031,0.0435,0.025
-0.4745,-0.7065,-0.2325,0.5905,-0.121,-0.4695,-0.065,-0.0925,-0.225,-0.1395,-0.396,-0.177,-0.0315,0.047,0.0265
-0.4745,-0.7085,-0.234,0.592,-0.12,-0.471,-0.062,-0.091,-0.221,-0.1375,-0.3935,-0.172,-0.0285,0.0525,0.029
-0.484,-0.7115,-0.227,0.598,-0.1285,-0.469,-0.061,-0.0875,-0.22,-0.1355,-0.388,-0.168,-0.0265,0.062,0.0305
-0.491,-0.717,-0.226,0.6045,-0.1325,-0.471,-0.0655,-0.0915,-0.225,-0.1415,-0.3905,-0.1725,-0.0255,0.0575,0.0295
-0.477,-0.72,-0.243,0.5985,-0.117,-0.481,-0.0745,-0.1005,-0.2335,-0.151,-0.399,-0.179,-0.026,0.052,0.0285
-0.4595,-0.7035,-0.244,0.582,-0.108,-0.4735,-0.071,-0.094,-0.227,-0.147,-0.3955,-0.176,-0.0295,0.0545,0.0295
-0.4505,-0.6925,-0.242,0.572,-0.1045,-0.467,-0.063,-0.0875,-0.2185,-0.1395,-0.387,-0.169,-0.028,0.0485,0.0265
-0.5,-0.7075,-0.2075,0.604,-0.146,-0.457,-0.0535,-0.0805,-0.2105,-0.1305,-0.3765,-0.1585,-0.029,0.057,0.023
-0.539,-0.734,-0.1945,0.637,-0.1725,-0.464,-0.056,-0.0825,-0.214,-0.134,-0.379,-0.1625,-0.0305,0.063,0.025
-0.5195,-0.751,-0.2315,0.635,-0.144,-0.491,-0.072,-0.098,-0.2295,-0.1485,-0.3945,-0.1785,-0.0325,0.0575,0.0265
-0.516,-0.742,-0.2265,0.629,-0.145,-0.484,-0.0745,-0.1005,-0.231,-0.1495,-0.398,-0.1815,-0.0335,0.058,0.028
-0.4725,-0.7205,-0.248,0.597,-0.112,-0.484,-0.0795,-0.1035,-0.2335,-0.1525,-0.401,-0.1835,-0.028,0.0515,0.031
-0.421,-0.7125,-0.291,0.567,-0.065,-0.5015,-0.087,-0.1105,-0.24,-0.1585,-0.407,-0.1905,-0.0255,0.0515,0.03
-0.4165,-0.7175,-0.301,0.567,-0.0575,-0.509,-0.0875,-0.1105,-0.241,-0.1585,-0.4105,-0.192,-0.0275,0.046,0.028
-0.404,-0.713,-0.309,0.559,-0.0475,-0.5105,-0.0865,-0.108,-0.239,-0.157,-0.4105,-0.1915,-0.028,0.034,0.0255
-0.4085,-0.7075,-0.299,0.558,-0.055,-0.503,-0.0845,-0.1065,-0.2385,-0.154,-0.408,-0.1905,-0.028,0.04,0.024
-0.438,-0.71,-0.2725,0.5745,-0.083,-0.491,-0.081,-0.104,-0.2375,-0.152,-0.405,-0.1865,-0.0265,0.0515,0.027
-0.4505,-0.7115,-0.261,0.5815,-0.0945,-0.486,-0.079,-0.102,-0.235,-0.15,-0.4035,-0.187,-0.026,0.051,0.0275
-0.428,-0.7085,-0.2805,0.5685,-0.0735,-0.494,-0.082,-0.1045,-0.2365,-0.1515,-0.406,-0.189,-0.0255,0.0485,0.027
-0.4285,-0.7115,-0.2835,0.5705,-0.0725,-0.4975,-0.0845,-0.1085,-0.241,-0.1575,-0.408,-0.191,-0.0275,0.051,0.0285
-0.452,-0.7225,-0.2705,0.5875,-0.091,-0.496,-0.083,-0.109,-0.2415,-0.158,-0.409,-0.1915,-0.0315,0.0435,0.029
-0.4565,-0.723,-0.2665,0.59,-0.095,-0.4945,-0.0835,-0.1085,-0.242,-0.158,-0.4105,-0.193,-0.0325,0.0415,0.027
-0.457,-0.716,-0.259,0.5865,-0.099,-0.4875,-0.085,-0.1115,-0.2435,-0.1615,-0.4135,-0.1965,-0.0335,0.0485,0.027
-0.459,-0.7195,-0.2605,0.5895,-0.099,-0.49,-0.0875,-0.115,-0.246,-0.1645,-0.4155,-0.1975,-0.033,0.056,0.0265
-0.474,-0.737,-0.263,0.6055,-0.1055,-0.5,-0.089,-0.116,-0.2485,-0.165,-0.4125,-0.194,-0.0295,0.0495,0.028
-0.4765,-0.7385,-0.262,0.6075,-0.107,-0.5005,-0.088,-0.115,-0.247,-0.1665,-0.4115,-0.193,-0.0295,0.047,0.0295
-0.475,-0.7335,-0.2585,0.6045,-0.108,-0.496,-0.081,-0.1085,-0.24,-0.162,-0.4055,-0.188,-0.031,0.0465,0.027
-0.47,-0.7305,-0.261,0.6005,-0.1045,-0.4955,-0.078,-0.1045,-0.2365,-0.158,-0.4025,-0.1825,-0.029,0.0415,0.027
-0.4655,-0.7375,-0.272,0.602,-0.097,-0.5045,-0.0785,-0.106,-0.2365,-0.16,-0.406,-0.1845,-0.0285,0.041,0.027
-0.4755,-0.7525,-0.277,0.614,-0.099,-0.5145,-0.073,-0.1015,-0.232,-0.1565,-0.403,-0.1825,-0.0305,0.0255,0.028
-0.478,-0.75,-0.272,0.6145,-0.103,-0.511,-0.0715,-0.099,-0.233,-0.1555,-0.404,-0.183,-0.0325,0.018,0.0295
-0.4785,-0.7455,-0.2665,0.612,-0.106,-0.506,-0.0745,-0.1015,-0.2345,-0.157,-0.4075,-0.184,-0.031,0.0205,0.0315
-0.475,-0.742,-0.267,0.609,-0.104,-0.504,-0.0755,-0.101,-0.235,-0.156,-0.407,-0.1845,-0.031,0.026,0.0315
-0.48,-0.7405,-0.2605,0.6105,-0.1095,-0.5005,-0.075,-0.1,-0.235,-0.1565,-0.409,-0.187,-0.032,0.027,0.03
-0.4845,-0.7415,-0.2565,0.6135,-0.114,-0.4985,-0.074,-0.1,-0.235,-0.156,-0.411,-0.187,-0.033,0.03,0.029
-0.4865,-0.737,-0.2505,0.612,-0.118,-0.494,-0.074,-0.101,-0.2365,-0.1575,-0.412,-0.1885,-0.035,0.038,0.0305
-0.48,-0.7225,-0.2425,0.6015,-0.119,-0.482,-0.0745,-0.0985,-0.235,-0.155,-0.4085,-0.185,-0.033,0.0435,0.0305
-0.485,-0.723,-0.238,0.6045,-0.124,-0.48,-0.073,-0.0955,-0.2325,-0.153,-0.4035,-0.181,-0.0315,0.0475,0.03
-0.4885,-0.734,-0.2455,0.6115,-0.1215,-0.4895,-0.0745,-0.0965,-0.2335,-0.155,-0.4085,-0.1845,-0.032,0.042,0.031
-0.4805,-0.7385,-0.2585,0.6095,-0.111,-0.4985,-0.0845,-0.107,-0.2455,-0.164,-0.4175,-0.1955,-0.0355,0.0475,0.0305
-0.4655,-0.731,-0.265,0.5985,-0.1,-0.498,-0.0885,-0.114,-0.2485,-0.1685,-0.418,-0.1985,-0.032,0.0485,0.032
-0.4605,-0.723,-0.2625,0.592,-0.099,-0.4925,-0.083,-0.109,-0.2435,-0.1625,-0.4125,-0.192,-0.0295,0.0445,0.029
-0.471,-0.731,-0.26,0.601,-0.1055,-0.495,-0.08,-0.1085,-0.242,-0.1625,-0.408,-0.189,-0.0315,0.0495,0.029
-0.451,-0.718,-0.267,0.5845,-0.092,-0.492,-0.076,-0.1045,-0.2365,-0.159,-0.404,-0.184,-0.0305,0.0375,0.028
-0.454,-0.724,-0.27,0.5895,-0.092,-0.497,-0.0775,-0.1035,-0.239,-0.1615,-0.402,-0.182,-0.025,0.0245,0.0255
-0.464,-0.7335,-0.2695,0.599,-0.0975,-0.5015,-0.085,-0.11,-0.245,-0.1675,-0.407,-0.189,-0.026,0.036,0.03
-0.4415,-0.715,-0.2735,0.5785,-0.084,-0.494,-0.0885,-0.113,-0.246,-0.1685,-0.411,-0.1935,-0.032,0.0485,0.03
-0.437,-0.7035,-0.267,0.5705,-0.085,-0.485,-0.0835,-0.109,-0.24,-0.164,-0.404,-0.187,-0.033,0.051,0.0325
-0.442,-0.7085,-0.267,0.5755,-0.0875,-0.4875,-0.082,-0.1085,-0.2405,-0.1635,-0.404,-0.185,-0.032,0.053,0.033
-0.45,-0.717,-0.267,0.584,-0.0915,-0.4915,-0.085,-0.111,-0.2455,-0.1675,-0.4075,-0.1875,-0.0315,0.057,0.0325
-0.4885,-0.714,-0.2255,0.6015,-0.1315,-0.4695,-0.076,-0.1025,-0.236,-0.158,-0.4005,-0.1815,-0.0315,0.0625,0.032
-0.481,-0.717,-0.2355,0.599,-0.1225,-0.476,-0.0805,-0.108,-0.2405,-0.162,-0.404,-0.1845,-0.03,0.0555,0.0305
-0.459,-0.721,-0.262,0.59,-0.0985,-0.491,-0.0855,-0.1125,-0.2445,-0.165,-0.409,-0.191,-0.033,0.0485,0.03
-0.495,-0.726,-0.2305,0.6105,-0.1325,-0.478,-0.0745,-0.1045,-0.236,-0.1555,-0.403,-0.184,-0.035,0.0475,0.0275
-0.505,-0.7245,-0.2195,0.615,-0.1425,-0.4715,-0.0695,-0.101,-0.233,-0.1525,-0.4,-0.1815,-0.0355,0.041,0.027
-0.4825,-0.716,-0.233,0.5995,-0.1245,-0.4745,-0.0725,-0.103,-0.2365,-0.1545,-0.4035,-0.1875,-0.036,0.0415,0.027
-0.467,-0.7085,-0.2415,0.588,-0.113,-0.4745,-0.0765,-0.1075,-0.2405,-0.1585,-0.4095,-0.192,-0.036,0.0505,0.028
-0.4605,-0.7,-0.2395,0.5805,-0.1105,-0.4695,-0.075,-0.106,-0.239,-0.156,-0.407,-0.1905,-0.0355,0.053,0.027
-0.443,-0.6995,-0.2565,0.571,-0.093,-0.4775,-0.079,-0.111,-0.244,-0.1595,-0.409,-0.1935,-0.0335,0.0535,0.0275
-0.4255,-0.6995,-0.274,0.563,-0.0755,-0.4865,-0.087,-0.12,-0.2525,-0.1665,-0.4185,-0.2015,-0.0325,0.0555,0.029
-0.433,-0.708,-0.275,0.5705,-0.079,-0.4915,-0.087,-0.1195,-0.2515,-0.166,-0.4165,-0.199,-0.0295,0.0475,0.03
-0.4375,-0.7085,-0.271,0.5735,-0.083,-0.4895,-0.0845,-0.1155,-0.248,-0.1655,-0.414,-0.1975,-0.0325,0.0475,0.0285
-0.46,-0.7025,-0.243,0.5815,-0.1085,-0.4725,-0.085,-0.1165,-0.2485,-0.166,-0.415,-0.199,-0.0355,0.06,0.026
-0.487,-0.7075,-0.2205,0.5975,-0.133,-0.464,-0.084,-0.115,-0.247,-0.168,-0.4135,-0.195,-0.033,0.064,0.0295
-0.4915,-0.716,-0.2245,0.604,-0.1335,-0.47,-0.081,-0.1095,-0.242,-0.1635,-0.409,-0.1905,-0.0295,0.0535,0.0315
-0.493,-0.7275,-0.2345,0.6105,-0.129,-0.481,-0.0755,-0.105,-0.2365,-0.156,-0.401,-0.1825,-0.0265,0.049,0.0315
-0.4875,-0.7215,-0.2335,0.605,-0.127,-0.477,-0.0655,-0.0935,-0.224,-0.1455,-0.3875,-0.1705,-0.0265,0.0465,0.0335
-0.481,-0.725,-0.244,0.6035,-0.1185,-0.484,-0.063,-0.091,-0.2215,-0.1435,-0.3855,-0.1695,-0.027,0.042,0.034
-0.4505,-0.7265,-0.276,0.5885,-0.087,-0.501,-0.0745,-0.1045,-0.2355,-0.157,-0.399,-0.1815,-0.0275,0.0415,0.0335
-0.431,-0.715,-0.284,0.5735,-0.0735,-0.499,-0.0825,-0.113,-0.2435,-0.1635,-0.407,-0.1895,-0.0265,0.035,0.033
-0.4545,-0.721,-0.2665,0.588,-0.094,-0.4935,-0.09,-0.119,-0.2495,-0.1695,-0.413,-0.1955,-0.0245,0.037,0.0345
-0.4595,-0.709,-0.2495,0.5845,-0.105,-0.479,-0.0935,-0.1225,-0.2535,-0.171,-0.416,-0.197,-0.0245,0.044,0.036
-0.455,-0.701,-0.2465,0.5785,-0.1045,-0.4735,-0.0875,-0.119,-0.249,-0.1675,-0.4125,-0.195,-0.027,0.0405,0.036
-0.4605,-0.708,-0.248,0.5845,-0.1065,-0.4775,-0.084,-0.116,-0.2455,-0.1645,-0.4085,-0.194,-0.028,0.0415,0.033
-0.4655,-0.712,-0.2465,0.589,-0.1095,-0.479,-0.085,-0.1155,-0.2445,-0.162,-0.409,-0.192,-0.0295,0.048,0.032
-0.4845,-0.725,-0.2405,0.605,-0.122,-0.4825,-0.09,-0.12,-0.249,-0.167,-0.4145,-0.198,-0.0325,0.053,0.0315
-0.488,-0.7285,-0.2405,0.6085,-0.1235,-0.4845,-0.0905,-0.1215,-0.251,-0.168,-0.416,-0.1995,-0.033,0.049,0.031
-0.4655,-0.716,-0.2505,0.591,-0.1075,-0.483,-0.0825,-0.111,-0.2415,-0.159,-0.4065,-0.1885,-0.031,0.045,0.0305
-0.4515,-0.709,-0.2575,0.5805,-0.097,-0.483,-0.074,-0.1025,-0.2335,-0.1505,-0.3975,-0.1815,-0.034,0.041,0.029
-0.4425,-0.7095,-0.2675,0.576,-0.0875,-0.4885,-0.0665,-0.0975,-0.2245,-0.1445,-0.3895,-0.1735,-0.035,0.041,0.0295
-0.4525,-0.726,-0.274,0.5895,-0.0895,-0.5,-0.0675,-0.096,-0.224,-0.146,-0.391,-0.1755,-0.033,0.031,0.0255
-0.4565,-0.732,-0.2755,0.5945,-0.0905,-0.5035,-0.069,-0.0995,-0.228,-0.1485,-0.3935,-0.1785,-0.0325,0.024,0.0225
-0.462,-0.734,-0.272,0.598,-0.095,-0.503,-0.071,-0.102,-0.2315,-0.1515,-0.3935,-0.179,-0.0335,0.0365,0.024
-0.463,-0.731,-0.268,0.5975,-0.098,-0.499,-0.0725,-0.1015,-0.232,-0.152,-0.3935,-0.1795,-0.034,0.041,0.026
-0.4365,-0.701,-0.2645,0.569,-0.086,-0.4825,-0.0645,-0.095,-0.224,-0.1455,-0.386,-0.1715,-0.0325,0.048,0.0285
-0.442,-0.6925,-0.25,0.5675,-0.096,-0.471,-0.0655,-0.0945,-0.225,-0.147,-0.3875,-0.174,-0.0315,0.055,0.0285
-0.4505,-0.696,-0.2455,0.5735,-0.1025,-0.471,-0.067,-0.0955,-0.2245,-0.148,-0.387,-0.1725,-0.0295,0.046,0.0295
-0.454,-0.703,-0.249,0.579,-0.1025,-0.4755,-0.0665,-0.093,-0.2225,-0.147,-0.385,-0.17,-0.0305,0.0385,0.0275
-0.446,-0.693,-0.247,0.57,-0.1,-0.4695,-0.0635,-0.09,-0.222,-0.1435,-0.3815,-0.1655,-0.0295,0.04,0.0255
-0.4355,-0.6815,-0.246,0.5585,-0.0945,-0.4635,-0.056,-0.0845,-0.217,-0.1365,-0.375,-0.1565,-0.029,0.038,0.0265
-0.436,-0.692,-0.256,0.564,-0.09,-0.4735,-0.06,-0.088,-0.221,-0.1405,-0.3805,-0.165,-0.0315,0.0325,0.03
-0.4125,-0.695,-0.2825,0.554,-0.065,-0.4885,-0.067,-0.095,-0.23,-0.148,-0.3885,-0.174,-0.031,0.0385,0.032
-0.4125,-0.692,-0.2795,0.5525,-0.0665,-0.4855,-0.0705,-0.0985,-0.235,-0.1505,-0.394,-0.1765,-0.031,0.042,0.0315
-0.436,-0.6885,-0.2525,0.5625,-0.092,-0.4705,-0.068,-0.096,-0.231,-0.1455,-0.3895,-0.173,-0.03,0.0375,0.0295
-0.442,-0.6935,-0.2515,0.568,-0.095,-0.4725,-0.067,-0.094,-0.231,-0.143,-0.3885,-0.1715,-0.032,0.03,0.0275
-0.4515,-0.698,-0.246,0.575,-0.103,-0.4715,-0.0715,-0.098,-0.2355,-0.148,-0.393,-0.1745,-0.0335,0.029,0.027
-0.4585,-0.699,-0.2405,0.5785,-0.109,-0.4695,-0.073,-0.1005,-0.2365,-0.149,-0.396,-0.179,-0.0355,0.044,0.0275
-0.461,-0.703,-0.2425,0.5825,-0.1095,-0.4725,-0.073,-0.0995,-0.2365,-0.149,-0.399,-0.182,-0.036,0.049,0.033
-0.466,-0.7045,-0.2385,0.5855,-0.114,-0.471,-0.0705,-0.096,-0.233,-0.1445,-0.3945,-0.177,-0.034,0.0405,0.0335
-0.4685,-0.722,-0.253,0.5955,-0.108,-0.4875,-0.077,-0.1025,-0.2405,-0.1525,-0.4025,-0.1855,-0.036,0.0355,0.031
-0.4575,-0.719,-0.2615,0.5885,-0.098,-0.49,-0.077,-0.104,-0.2425,-0.155,-0.405,-0.1875,-0.0355,0.0335,0.031
-0.4325,-0.694,-0.261,0.5635,-0.0855,-0.4775,-0.0765,-0.102,-0.241,-0.155,-0.4035,-0.1865,-0.034,0.0425,0.03
-0.4405,-0.6815,-0.241,0.561,-0.1,-0.461,-0.0805,-0.103,-0.2445,-0.16,-0.407,-0.19,-0.032,0.0535,0.0315
-0.4525,-0.678,-0.226,0.5655,-0.1135,-0.452,-0.076,-0.0995,-0.2405,-0.156,-0.403,-0.186,-0.031,0.0525,0.03
-0.4375,-0.682,-0.2445,0.56,-0.0965,-0.4625,-0.0775,-0.0975,-0.2385,-0.156,-0.4015,-0.183,-0.0285,0.0495,0.0295
-0.4305,-0.692,-0.2615,0.5615,-0.0845,-0.4765,-0.076,-0.0965,-0.2395,-0.156,-0.4,-0.182,-0.028,0.05,0.031
-0.432,-0.7095,-0.2775,0.571,-0.077,-0.493,-0.078,-0.1,-0.2445,-0.16,-0.403,-0.186,-0.0315,0.0455,0.03
-0.4375,-0.7055,-0.268,0.572,-0.085,-0.4865,-0.078,-0.1015,-0.2425,-0.159,-0.4025,-0.184,-0.0325,0.039,0.0305
-0.453,-0.706,-0.253,0.58,-0.1,-0.4795,-0.0745,-0.101,-0.239,-0.157,-0.4,-0.1805,-0.0335,0.036,0.0305
-0.46,-0.713,-0.2535,0.5865,-0.1035,-0.483,-0.0755,-0.098,-0.2375,-0.1555,-0.3975,-0.1785,-0.0335,0.032,0.0315
-0.467,-0.7135,-0.2465,0.5905,-0.11,-0.48,-0.0765,-0.099,-0.2375,-0.1545,-0.3985,-0.177,-0.035,0.028,0.0325
-0.475,-0.7125,-0.238,0.594,-0.1185,-0.475,-0.078,-0.102,-0.24,-0.1555,-0.399,-0.177,-0.0355,0.0285,0.0315
-0.4725,-0.7,-0.2275,0.5865,-0.1225,-0.4635,-0.076,-0.0995,-0.2385,-0.152,-0.3965,-0.176,-0.035,0.041,0.0305
-0.465,-0.681,-0.216,0.5735,-0.1245,-0.448,-0.0725,-0.095,-0.2345,-0.149,-0.394,-0.174,-0.035,0.0595,0.031
-0.458,-0.6755,-0.2175,0.567,-0.1205,-0.446,-0.067,-0.0895,-0.229,-0.143,-0.389,-0.171,-0.035,0.0635,0.0335
-0.4435,-0.6775,-0.234,0.561,-0.105,-0.4555,-0.066,-0.0905,-0.228,-0.141,-0.3895,-0.169,-0.033,0.054,0.033
-0.4315,-0.686,-0.2545,0.559,-0.0885,-0.47,-0.0745,-0.1005,-0.237,-0.151,-0.3995,-0.179,-0.0325,0.049,0.033
-0.4175,-0.6945,-0.277,0.5565,-0.0705,-0.4855,-0.087,-0.111,-0.2485,-0.161,-0.4105,-0.1895,-0.031,0.0435,0.0335
-0.407,-0.6855,-0.279,0.5465,-0.064,-0.482,-0.087,-0.1095,-0.246,-0.158,-0.4065,-0.1845,-0.028,0.0375,0.0305
-0.414,-0.6765,-0.263,0.5455,-0.0755,-0.4695,-0.0795,-0.104,-0.2395,-0.1535,-0.4,-0.1795,-0.032,0.0385,0.031
-0.41,-0.661,-0.251,0.5355,-0.0795,-0.4555,-0.0735,-0.0995,-0.2345,-0.1495,-0.3965,-0.177,-0.035,0.038,0.032
-0.4165,-0.66,-0.243,0.5385,-0.087,-0.451,-0.0675,-0.093,-0.229,-0.144,-0.391,-0.1735,-0.0355,0.0465,0.031
-0.424,-0.661,-0.237,0.543,-0.0935,-0.449,-0.0665,-0.0905,-0.227,-0.1425,-0.3875,-0.1685,-0.034,0.056,0.0325
-0.43,-0.6695,-0.2395,0.55,-0.0955,-0.4545,-0.067,-0.0905,-0.226,-0.1415,-0.3855,-0.1675,-0.0355,0.0525,0.032
-0.4405,-0.683,-0.243,0.562,-0.0985,-0.4625,-0.0695,-0.0935,-0.231,-0.145,-0.388,-0.17,-0.036,0.054,0.031
-0.4355,-0.686,-0.2505,0.561,-0.0925,-0.468,-0.0715,-0.095,-0.232,-0.147,-0.387,-0.169,-0.0305,0.0525,0.029
-0.4305,-0.6935,-0.2625,0.562,-0.084,-0.4775,-0.0755,-0.098,-0.2335,-0.1495,-0.388,-0.171,-0.027,0.0475,0.027
-0.4375,-0.6935,-0.256,0.5655,-0.0905,-0.4745,-0.0775,-0.101,-0.2335,-0.1515,-0.3905,-0.1745,-0.028,0.0415,0.03
-0.444,-0.697,-0.2535,0.5705,-0.0955,-0.475,-0.078,-0.101,-0.2345,-0.152,-0.392,-0.1765,-0.0305,0.037,0.032
-0.414,-0.6825,-0.2685,0.5485,-0.073,-0.475,-0.079,-0.1,-0.2365,-0.153,-0.3935,-0.178,-0.0295,0.0345,0.0315
-0.3935,-0.6725,-0.2795,0.5335,-0.057,-0.476,-0.0775,-0.1005,-0.235,-0.1505,-0.393,-0.178,-0.03,0.029,0.031
-0.409,-0.6795,-0.2705,0.5445,-0.0695,-0.4745,-0.074,-0.0975,-0.234,-0.1465,-0.39,-0.174,-0.029,0.033,0.031
-0.434,-0.6835,-0.2495,0.559,-0.092,-0.466,-0.0695,-0.093,-0.2285,-0.1425,-0.384,-0.1665,-0.0265,0.031,0.028
-0.4605,-0.685,-0.2245,0.573,-0.118,-0.4545,-0.067,-0.0925,-0.2255,-0.1385,-0.3855,-0.1675,-0.032,0.039,0.028
-0.4845,-0.691,-0.2065,0.5875,-0.139,-0.4485,-0.07,-0.094,-0.228,-0.142,-0.3935,-0.1735,-0.0355,0.048,0.0305
-0.491,-0.703,-0.2125,0.5975,-0.1395,-0.4575,-0.075,-0.0985,-0.2335,-0.147,-0.398,-0.1805,-0.037,0.044,0.0285
-0.4885,-0.707,-0.2185,0.598,-0.135,-0.4625,-0.073,-0.0975,-0.2315,-0.1455,-0.395,-0.178,-0.039,0.0445,0.028
-0.465,-0.703,-0.2385,0.584,-0.1135,-0.4705,-0.077,-0.102,-0.236,-0.1485,-0.399,-0.1785,-0.038,0.036,0.028
-0.418,-0.6915,-0.2735,0.555,-0.0725,-0.4825,-0.0875,-0.112,-0.2465,-0.157,-0.4095,-0.191,-0.038,0.038,0.032
-0.408,-0.6905,-0.2825,0.5495,-0.063,-0.486,-0.0915,-0.1145,-0.2495,-0.161,-0.412,-0.194,-0.037,0.043,0.034
-0.4145,-0.68,-0.2655,0.5475,-0.0745,-0.4725,-0.0835,-0.109,-0.244,-0.1545,-0.4065,-0.189,-0.038,0.043,0.032
-0.411,-0.666,-0.255,0.539,-0.078,-0.4605,-0.077,-0.102,-0.236,-0.1475,-0.3985,-0.18,-0.037,0.047,0.031
-0.403,-0.6655,-0.2625,0.5345,-0.07,-0.464,-0.075,-0.1005,-0.2345,-0.1455,-0.3945,-0.1745,-0.0345,0.037,0.0315
-0.4005,-0.6685,-0.268,0.5345,-0.0665,-0.468,-0.0705,-0.0965,-0.2285,-0.1415,-0.389,-0.1705,-0.0335,0.024,0.032
-0.413,-0.6775,-0.264,0.5455,-0.0745,-0.4705,-0.0685,-0.0935,-0.225,-0.1385,-0.3855,-0.1655,-0.0325,0.0265,0.032
-0.416,-0.671,-0.2555,0.5435,-0.0805,-0.463,-0.062,-0.0885,-0.2205,-0.1335,-0.3805,-0.1605,-0.0345,0.0355,0.034
-0.4275,-0.6795,-0.2525,0.554,-0.0875,-0.466,-0.0605,-0.0885,-0.2205,-0.134,-0.3785,-0.16,-0.0335,0.033,0.0335
-0.4495,-0.6895,-0.2395,0.5695,-0.105,-0.4645,-0.069,-0.0965,-0.2285,-0.1425,-0.3875,-0.1705,-0.036,0.043,0.033
-0.439,-0.6705,-0.232,0.555,-0.1035,-0.451,-0.0745,-0.1005,-0.2335,-0.1485,-0.394,-0.176,-0.0355,0.0565,0.033
-0.403,-0.6615,-0.2585,0.5325,-0.0725,-0.46,-0.0815,-0.107,-0.241,-0.155,-0.402,-0.182,-0.0305,0.051,0.034
-0.3985,-0.6645,-0.266,0.532,-0.0665,-0.465,-0.0815,-0.108,-0.2395,-0.1545,-0.403,-0.1815,-0.029,0.049,0.0375
-0.423,-0.676,-0.253,0.55,-0.085,-0.4645,-0.0765,-0.102,-0.235,-0.1475,-0.3965,-0.176,-0.0305,0.042,0.0385
-0.436,-0.6885,-0.2525,0.562,-0.092,-0.47,-0.0745,-0.0995,-0.233,-0.143,-0.393,-0.1745,-0.031,0.0385,0.0365
-0.4365,-0.692,-0.255,0.5645,-0.0905,-0.473,-0.0735,-0.1015,-0.2345,-0.1445,-0.395,-0.175,-0.032,0.039,0.035
-0.4325,-0.686,-0.253,0.5595,-0.0895,-0.469,-0.07,-0.099,-0.2305,-0.144,-0.3945,-0.1735,-0.0325,0.036,0.0335
-0.435,-0.6865,-0.2515,0.5605,-0.0915,-0.4685,-0.064,-0.0915,-0.2235,-0.136,-0.3865,-0.165,-0.0295,0.0305,0.032
-0.432,-0.6965,-0.2645,0.5645,-0.084,-0.48,-0.065,-0.0935,-0.2265,-0.137,-0.392,-0.169,-0.033,0.0265,0.0345
-0.4235,-0.6965,-0.273,0.56,-0.0755,-0.4845,-0.075,-0.104,-0.236,-0.147,-0.402,-0.181,-0.036,0.033,0.0365
-0.436,-0.7015,-0.2655,0.569,-0.0855,-0.483,-0.0715,-0.0995,-0.2335,-0.1435,-0.3985,-0.177,-0.0345,0.0245,0.0345
-0.4495,-0.699,-0.2495,0.5745,-0.1,-0.474,-0.07,-0.098,-0.2315,-0.142,-0.396,-0.175,-0.034,0.026,0.034
-0.434,-0.683,-0.249,0.5585,-0.0925,-0.466,-0.073,-0.1015,-0.234,-0.145,-0.397,-0.175,-0.032,0.0325,0.034
-0.422,-0.6655,-0.2435,0.544,-0.089,-0.4545,-0.0645,-0.095,-0.227,-0.1395,-0.393,-0.169,-0.0315,0.0375,0.034
-0.434,-0.659,-0.225,0.5465,-0.1045,-0.4415,-0.0735,-0.103,-0.2345,-0.1475,-0.399,-0.1755,-0.0325,0.056,0.033
-0.435,-0.669,-0.2345,0.5525,-0.1005,-0.4515,-0.08,-0.1095,-0.24,-0.1535,-0.4035,-0.1785,-0.032,0.058,0.033
-0.4315,-0.675,-0.2435,0.5535,-0.094,-0.459,-0.0755,-0.1055,-0.237,-0.148,-0.397,-0.1735,-0.027,0.052,0.035
-0.438,-0.6795,-0.242,0.559,-0.098,-0.4605,-0.0785,-0.108,-0.2365,-0.1505,-0.399,-0.1755,-0.026,0.0585,0.0355
-0.4595,-0.702,-0.2425,0.581,-0.1085,-0.472,-0.083,-0.114,-0.2425,-0.1595,-0.405,-0.18,-0.027,0.0605,0.036
-0.459,-0.7,-0.241,0.5795,-0.109,-0.4705,-0.0795,-0.1115,-0.2415,-0.1575,-0.4045,-0.18,-0.0295,0.051,0.0355
-0.4465,-0.6865,-0.2395,0.5665,-0.1035,-0.4625,-0.072,-0.104,-0.233,-0.1495,-0.3985,-0.177,-0.0325,0.0425,0.0345
-0.4465,-0.686,-0.2395,0.5665,-0.1035,-0.4625,-0.0695,-0.102,-0.233,-0.148,-0.3965,-0.1735,-0.03,0.0375,0.0355
-0.4395,-0.6755,-0.236,0.5575,-0.1015,-0.4555,-0.0685,-0.1015,-0.233,-0.146,-0.397,-0.1745,-0.031,0.037,0.035
-0.455,-0.684,-0.229,0.5695,-0.1125,-0.4565,-0.075,-0.107,-0.239,-0.1525,-0.402,-0.182,-0.034,0.0445,0.0365
-0.453,-0.691,-0.238,0.5725,-0.1075,-0.464,-0.074,-0.1045,-0.238,-0.1505,-0.4,-0.1805,-0.0325,0.045,0.0365
-0.4445,-0.69,-0.2455,0.5675,-0.0995,-0.4675,-0.0685,-0.1,-0.2345,-0.1465,-0.3965,-0.178,-0.032,0.0405,0.0365
-0.4455,-0.6905,-0.245,0.568,-0.1,-0.4675,-0.0725,-0.1035,-0.2375,-0.1485,-0.4025,-0.182,-0.035,0.042,0.0355
-0.4635,-0.6965,-0.2335,0.58,-0.115,-0.465,-0.0795,-0.11,-0.244,-0.1545,-0.4105,-0.191,-0.0405,0.05,0.034
-0.49,-0.714,-0.2245,0.6025,-0.1325,-0.469,-0.087,-0.118,-0.252,-0.1645,-0.418,-0.199,-0.042,0.057,0.034
-0.4475,-0.68,-0.2325,0.564,-0.1075,-0.456,-0.0805,-0.11,-0.241,-0.1515,-0.405,-0.1855,-0.0365,0.0505,0.0345
-0.3985,-0.6345,-0.236,0.517,-0.0815,-0.435,-0.065,-0.094,-0.226,-0.135,-0.3895,-0.1695,-0.034,0.0515,0.038
-0.405,-0.641,-0.236,0.5235,-0.0845,-0.438,-0.064,-0.096,-0.2275,-0.1385,-0.393,-0.173,-0.0355,0.052,0.0395
-0.4155,-0.657,-0.241,0.5365,-0.087,-0.4485,-0.0705,-0.1,-0.234,-0.144,-0.3985,-0.178,-0.0345,0.0455,0.038
-0.4455,-0.689,-0.2435,0.5675,-0.101,-0.466,-0.0775,-0.1075,-0.2425,-0.152,-0.406,-0.1845,-0.032,0.049,0.036
-0.4685,-0.703,-0.234,0.586,-0.117,-0.4685,-0.082,-0.112,-0.245,-0.155,-0.4075,-0.187,-0.031,0.048,0.035
-0.458,-0.6835,-0.2255,0.571,-0.116,-0.4545,-0.0765,-0.1065,-0.238,-0.151,-0.401,-0.182,-0.0315,0.0535,0.0335
-0.454,-0.6755,-0.2215,0.565,-0.116,-0.4485,-0.074,-0.1055,-0.237,-0.1505,-0.3985,-0.178,-0.029,0.0655,0.0335
-0.436,-0.667,-0.2315,0.552,-0.102,-0.449,-0.0765,-0.1065,-0.2375,-0.1515,-0.399,-0.1775,-0.0265,0.065,0.0355
-0.445,-0.6735,-0.2285,0.5595,-0.108,-0.451,-0.075,-0.1055,-0.2365,-0.1505,-0.3975,-0.1755,-0.027,0.0625,0.037
-0.4635,-0.678,-0.2145,0.571,-0.1245,-0.446,-0.0735,-0.1035,-0.234,-0.1475,-0.3935,-0.173,-0.0235,0.0685,0.0335
-0.468,-0.6805,-0.2125,0.5745,-0.128,-0.446,-0.0755,-0.105,-0.2355,-0.1495,-0.3945,-0.1775,-0.0235,0.075,0.029
-0.459,-0.6725,-0.2135,0.566,-0.1225,-0.443,-0.0655,-0.0955,-0.226,-0.1395,-0.386,-0.1685,-0.024,0.0745,0.024
-0.4365,-0.652,-0.215,0.5445,-0.1105,-0.4335,-0.0575,-0.0875,-0.217,-0.13,-0.3755,-0.16,-0.024,0.078,0.022
-0.4395,-0.6475,-0.208,0.5435,-0.116,-0.4275,-0.055,-0.087,-0.2165,-0.131,-0.374,-0.159,-0.025,0.0795,0.0245
-0.436,-0.645,-0.209,0.5405,-0.113,-0.427,-0.0495,-0.0815,-0.2075,-0.12,-0.366,-0.1525,-0.0215,0.0795,0.0215
-0.445,-0.6465,-0.2015,0.5455,-0.1215,-0.4235,-0.052,-0.084,-0.209,-0.1195,-0.3685,-0.1545,-0.021,0.085,0.021
-0.446,-0.6375,-0.192,0.542,-0.127,-0.4145,-0.051,-0.0825,-0.207,-0.117,-0.3665,-0.153,-0.0195,0.0925,0.0215
-0.4445,-0.6375,-0.193,0.541,-0.126,-0.415,-0.0455,-0.0765,-0.2005,-0.1105,-0.3585,-0.146,-0.016,0.0965,0.018
-0.459,-0.642,-0.183,0.551,-0.138,-0.4125,-0.0405,-0.0715,-0.1955,-0.1045,-0.357,-0.1415,-0.0185,0.092,0.0175
-0.4635,-0.6305,-0.167,0.5475,-0.148,-0.3985,-0.0355,-0.0655,-0.1885,-0.094,-0.345,-0.1325,-0.016,0.0995,0.019
-0.4625,-0.6065,-0.1435,0.535,-0.1595,-0.3745,-0.038,-0.0695,-0.1915,-0.096,-0.345,-0.137,-0.015,0.116,0.0195
-0.4585,-0.578,-0.12,0.5185,-0.1695,-0.349,-0.0505,-0.079,-0.2005,-0.106,-0.357,-0.1515,-0.0175,0.129,0.0225
-0.4615,-0.58,-0.1185,0.521,-0.1715,-0.349,-0.058,-0.0855,-0.2065,-0.113,-0.3615,-0.155,-0.014,0.137,0.023
-0.4575,-0.5905,-0.133,0.524,-0.1625,-0.361,-0.0595,-0.0885,-0.2105,-0.118,-0.3655,-0.1585,-0.015,0.144,0.0225
-0.4555,-0.589,-0.133,0.5225,-0.161,-0.3605,-0.0665,-0.094,-0.2155,-0.1235,-0.37,-0.163,-0.0155,0.155,0.025
-0.4335,-0.596,-0.1625,0.515,-0.1355,-0.379,-0.0735,-0.104,-0.223,-0.1315,-0.3745,-0.1665,-0.0155,0.1535,0.023
-0.4165,-0.611,-0.1945,0.514,-0.111,-0.4025,-0.077,-0.111,-0.2295,-0.138,-0.38,-0.1725,-0.018,0.1435,0.022
-0.4385,-0.6185,-0.18,0.5285,-0.129,-0.399,-0.071,-0.1055,-0.2245,-0.135,-0.3775,-0.171,-0.0215,0.1405,0.023
-0.4545,-0.623,-0.1685,0.539,-0.143,-0.3955,-0.062,-0.097,-0.216,-0.127,-0.366,-0.1605,-0.0215,0.1325,0.023
-0.466,-0.6325,-0.1665,0.5495,-0.15,-0.3995,-0.057,-0.094,-0.212,-0.1215,-0.36,-0.1535,-0.021,0.128,0.0225
-0.449,-0.632,-0.183,0.5405,-0.133,-0.407,-0.066,-0.1045,-0.221,-0.13,-0.3695,-0.161,-0.0235,0.1305,0.022
-0.42,-0.6225,-0.202,0.5215,-0.109,-0.412,-0.0745,-0.1115,-0.227,-0.136,-0.373,-0.1645,-0.021,0.1235,0.0245
-0.429,-0.6175,-0.1885,0.5235,-0.12,-0.403,-0.0705,-0.107,-0.222,-0.1315,-0.37,-0.16,-0.023,0.126,0.031
-0.4525,-0.636,-0.1835,0.5445,-0.1345,-0.4095,-0.077,-0.1105,-0.225,-0.134,-0.3725,-0.161,-0.0225,0.1195,0.0355
-0.461,-0.647,-0.1855,0.5545,-0.1375,-0.416,-0.0765,-0.1085,-0.2235,-0.13,-0.3715,-0.1595,-0.021,0.11,0.034
-0.467,-0.6505,-0.183,0.559,-0.142,-0.4165,-0.0735,-0.106,-0.223,-0.1295,-0.3735,-0.1615,-0.0215,0.1145,0.0315
-0.481,-0.662,-0.181,0.572,-0.15,-0.4215,-0.0815,-0.1135,-0.231,-0.138,-0.3825,-0.17,-0.0215,0.1175,0.03
-0.485,-0.6535,-0.1685,0.5695,-0.1585,-0.4105,-0.0855,-0.1175,-0.2355,-0.141,-0.3895,-0.1775,-0.027,0.13,0.029
-0.47,-0.6285,-0.1585,0.5495,-0.1555,-0.3935,-0.0785,-0.111,-0.2275,-0.1335,-0.382,-0.1685,-0.0265,0.136,0.026
-0.431,-0.5895,-0.159,0.5105,-0.136,-0.374,-0.068,-0.101,-0.2145,-0.1215,-0.3695,-0.1555,-0.023,0.1325,0.026
-0.417,-0.5805,-0.1635,0.499,-0.127,-0.3715,-0.066,-0.097,-0.2115,-0.119,-0.366,-0.1545,-0.02,0.129,0.0275
-0.427,-0.5855,-0.1585,0.5065,-0.1345,-0.3715,-0.0675,-0.0995,-0.2125,-0.1195,-0.366,-0.153,-0.0165,0.132,0.0285
-0.431,-0.592,-0.1605,0.5115,-0.1355,-0.376,-0.074,-0.1015,-0.2155,-0.1215,-0.3685,-0.1545,-0.015,0.133,0.029
-0.4425,-0.6145,-0.1715,0.5285,-0.1355,-0.3925,-0.074,-0.1015,-0.214,-0.121,-0.3645,-0.151,-0.01,0.1205,0.0255
-0.456,-0.6245,-0.168,0.5405,-0.144,-0.396,-0.074,-0.101,-0.211,-0.119,-0.362,-0.1495,-0.007,0.1215,0.032
-0.4635,-0.632,-0.1685,0.548,-0.1475,-0.4,-0.081,-0.1035,-0.2155,-0.1225,-0.3655,-0.151,-0.005,0.1245,0.0385
-0.45,-0.6315,-0.1815,0.541,-0.134,-0.4065,-0.087,-0.106,-0.218,-0.1245,-0.3655,-0.1485,-0.001,0.1125,0.041
-0.463,-0.649,-0.186,0.5565,-0.1385,-0.4175,-0.096,-0.1145,-0.2265,-0.132,-0.371,-0.1545,-0.0025,0.1065,0.047
-0.4775,-0.6685,-0.1915,0.5735,-0.143,-0.43,-0.108,-0.1235,-0.236,-0.1395,-0.376,-0.156,-0.003,0.1095,0.0515
-0.4745,-0.663,-0.1885,0.569,-0.1425,-0.4255,-0.113,-0.125,-0.235,-0.139,-0.374,-0.154,-0.003,0.1075,0.052
-0.479,-0.659,-0.1805,0.569,-0.149,-0.4195,-0.121,-0.1325,-0.2415,-0.145,-0.379,-0.16,-0.0045,0.115,0.0525
-0.4525,-0.6385,-0.186,0.5455,-0.133,-0.412,-0.131,-0.1375,-0.2455,-0.1475,-0.383,-0.162,0.0,0.138,0.055
-0.434,-0.614,-0.18,0.524,-0.1265,-0.397,-0.1305,-0.134,-0.2405,-0.142,-0.377,-0.155,0.0055,0.1515,0.059
-0.4155,-0.5955,-0.18,0.5055,-0.1175,-0.3875,-0.1275,-0.1255,-0.23,-0.131,-0.3635,-0.141,0.0135,0.1455,0.0655
-0.3845,-0.5735,-0.189,0.4795,-0.098,-0.381,-0.1295,-0.124,-0.223,-0.122,-0.355,-0.1325,0.0165,0.1455,0.071
-0.3835,-0.5655,-0.182,0.475,-0.1005,-0.3735,-0.1375,-0.1295,-0.228,-0.123,-0.3535,-0.132,0.0195,0.159,0.0745
-0.3945,-0.5665,-0.1715,0.481,-0.1115,-0.369,-0.1385,-0.131,-0.2285,-0.1255,-0.355,-0.1335,0.0185,0.16,0.074
-0.4145,-0.5775,-0.163,0.4965,-0.126,-0.37,-0.1435,-0.1395,-0.2345,-0.131,-0.3615,-0.1405,0.013,0.1625,0.0735
-0.444,-0.5865,-0.1425,0.5155,-0.151,-0.364,-0.1465,-0.144,-0.2405,-0.1345,-0.3635,-0.142,0.0095,0.1705,0.0755
-0.4665,-0.577,-0.111,0.522,-0.1775,-0.344,-0.144,-0.145,-0.2395,-0.1345,-0.3645,-0.1405,0.0035,0.1765,0.0795
-0.4625,-0.5685,-0.1065,0.5155,-0.178,-0.337,-0.1475,-0.1495,-0.2435,-0.1375,-0.368,-0.1435,0.0,0.1775,0.088
-0.4315,-0.5595,-0.128,0.4955,-0.1515,-0.3435,-0.153,-0.1555,-0.2505,-0.146,-0.374,-0.1495,-0.0005,0.167,0.093
-0.415,-0.557,-0.142,0.486,-0.1365,-0.349,-0.1565,-0.1605,-0.2535,-0.1525,-0.375,-0.152,0.0015,0.163,0.095
-0.423,-0.567,-0.144,0.495,-0.1395,-0.3555,-0.16,-0.163,-0.257,-0.156,-0.377,-0.155,0.0035,0.1635,0.0975
-0.4305,-0.576,-0.1455,0.5035,-0.1425,-0.3605,-0.1675,-0.1715,-0.2665,-0.166,-0.387,-0.1615,0.0045,0.169,0.1015
-0.4355,-0.5905,-0.1555,0.513,-0.14,-0.3725,-0.171,-0.1735,-0.269,-0.166,-0.3855,-0.16,0.005,0.1645,0.1075
-0.432,-0.594,-0.1625,0.5135,-0.1345,-0.378,-0.1715,-0.1705,-0.2655,-0.161,-0.3765,-0.149,0.014,0.1575,0.1075
-0.4165,-0.5835,-0.1665,0.5005,-0.125,-0.375,-0.174,-0.1735,-0.2665,-0.1625,-0.3735,-0.1435,0.0155,0.16,0.113
-0.4115,-0.5845,-0.173,0.498,-0.1195,-0.378,-0.176,-0.1745,-0.269,-0.1635,-0.3755,-0.147,0.01,0.1695,0.1215
-0.4245,-0.597,-0.172,0.511,-0.126,-0.3845,-0.181,-0.1815,-0.274,-0.169,-0.3805,-0.1505,0.0115,0.1795,0.125
-0.429,-0.5985,-0.1695,0.5145,-0.13,-0.384,-0.1855,-0.186,-0.2795,-0.174,-0.386,-0.155,0.0145,0.1625,0.1285
-0.419,-0.59,-0.171,0.505,-0.124,-0.3805,-0.187,-0.181,-0.278,-0.1735,-0.3855,-0.154,0.0225,0.155,0.129
-0.4115,-0.5975,-0.186,0.5045,-0.1125,-0.3915,-0.191,-0.1835,-0.28,-0.176,-0.3855,-0.155,0.0265,0.152,0.1325
-0.41,-0.6115,-0.202,0.511,-0.104,-0.4065,-0.191,-0.184,-0.2805,-0.1765,-0.3885,-0.1565,0.028,0.141,0.138
-0.4145,-0.62,-0.205,0.5175,-0.1045,-0.4125,-0.186,-0.1745,-0.273,-0.1675,-0.384,-0.151,0.032,0.1355,0.142
-0.4245,-0.6335,-0.209,0.5295,-0.108,-0.421,-0.1855,-0.1715,-0.27,-0.1645,-0.382,-0.149,0.035,0.1235,0.145
-0.426,-0.6505,-0.2245,0.5385,-0.101,-0.437,-0.1855,-0.1715,-0.27,-0.166,-0.3835,-0.151,0.039,0.116,0.145
-0.4175,-0.6595,-0.242,0.5385,-0.0875,-0.4505,-0.184,-0.1655,-0.2675,-0.1625,-0.383,-0.1515,0.043,0.0995,0.145
-0.407,-0.656,-0.249,0.5315,-0.079,-0.452,-0.1815,-0.164,-0.2615,-0.158,-0.38,-0.149,0.045,0.0875,0.1465
-0.398,-0.652,-0.254,0.5255,-0.072,-0.453,-0.1815,-0.1665,-0.2655,-0.1595,-0.3805,-0.151,0.0435,0.0915,0.1495
-0.3975,-0.6535,-0.256,0.526,-0.0705,-0.4545,-0.182,-0.17,-0.27,-0.163,-0.3845,-0.152,0.0395,0.095,0.151
-0.404,-0.6555,-0.251,0.53,-0.0765,-0.453,-0.1835,-0.1735,-0.2735,-0.169,-0.3875,-0.153,0.0325,0.0965,0.15
-0.406,-0.654,-0.2475,0.53,-0.079,-0.4505,-0.1835,-0.1775,-0.279,-0.174,-0.391,-0.1565,0.027,0.094,0.1495
-0.4115,-0.656,-0.2445,0.534,-0.0835,-0.45,-0.185,-0.184,-0.2845,-0.1795,-0.3955,-0.159,0.0225,0.102,0.147
-0.416,-0.658,-0.2415,0.537,-0.087,-0.4495,-0.1865,-0.188,-0.2895,-0.1845,-0.398,-0.161,0.0205,0.111,0.147
-0.4175,-0.65,-0.2325,0.5335,-0.0925,-0.441,-0.1805,-0.184,-0.286,-0.1815,-0.394,-0.158,0.021,0.115,0.15
-0.4345,-0.6605,-0.226,0.548,-0.1045,-0.443,-0.1825,-0.1875,-0.289,-0.1855,-0.3975,-0.1605,0.02,0.117,0.1495
-0.435,-0.6555,-0.221,0.5455,-0.107,-0.438,-0.1775,-0.1855,-0.2855,-0.183,-0.395,-0.1575,0.0195,0.1195,0.1465
-0.4325,-0.6485,-0.2155,0.5405,-0.1085,-0.432,-0.1725,-0.183,-0.283,-0.1805,-0.391,-0.1545,0.02,0.126,0.1415
-0.467,-0.6705,-0.2035,0.569,-0.132,-0.437,-0.1685,-0.1815,-0.282,-0.1815,-0.391,-0.1565,0.017,0.1225,0.1355
-0.4985,-0.6865,-0.188,0.5925,-0.1555,-0.437,-0.1595,-0.1735,-0.277,-0.178,-0.3885,-0.1555,0.012,0.1105,0.1285
-0.488,-0.693,-0.2045,0.591,-0.142,-0.4485,-0.158,-0.176,-0.2815,-0.1815,-0.394,-0.1605,0.0075,0.1095,0.1255
-0.4755,-0.684,-0.208,0.58,-0.1335,-0.446,-0.1505,-0.1705,-0.277,-0.179,-0.3945,-0.166,-0.003,0.117,0.119
-0.483,-0.675,-0.192,0.579,-0.1455,-0.433,-0.1405,-0.1625,-0.2695,-0.171,-0.3905,-0.1615,-0.0075,0.1155,0.112
-0.47,-0.6705,-0.201,0.5705,-0.1345,-0.4355,-0.14,-0.1645,-0.2695,-0.1705,-0.393,-0.1625,-0.0055,0.108,0.108
-0.432,-0.6645,-0.233,0.5485,-0.0995,-0.4485,-0.145,-0.168,-0.275,-0.177,-0.3985,-0.1675,-0.003,0.0975,0.1045
-0.4005,-0.651,-0.2505,0.526,-0.0755,-0.4505,-0.144,-0.17,-0.2795,-0.18,-0.405,-0.1705,-0.0045,0.0945,0.1035
-0.405,-0.649,-0.244,0.527,-0.0805,-0.446,-0.1425,-0.1675,-0.2775,-0.178,-0.4075,-0.1755,-0.008,0.091,0.097
-0.427,-0.662,-0.235,0.5445,-0.096,-0.448,-0.137,-0.1625,-0.273,-0.1735,-0.403,-0.171,-0.0075,0.0845,0.0925
-0.443,-0.6665,-0.2235,0.555,-0.1095,-0.445,-0.1315,-0.16,-0.272,-0.1725,-0.404,-0.1715,-0.0105,0.0815,0.0925
-0.448,-0.68,-0.232,0.5645,-0.108,-0.456,-0.1315,-0.158,-0.272,-0.1725,-0.406,-0.1725,-0.0125,0.07,0.09
-0.455,-0.6835,-0.2285,0.5695,-0.1135,-0.4555,-0.129,-0.158,-0.2715,-0.174,-0.406,-0.174,-0.0165,0.073,0.088
-0.46,-0.6805,-0.2205,0.5705,-0.1195,-0.4505,-0.129,-0.159,-0.273,-0.1775,-0.411,-0.18,-0.02,0.074,0.082
-0.463,-0.6935,-0.2305,0.5785,-0.116,-0.462,-0.129,-0.161,-0.2765,-0.1815,-0.4155,-0.1835,-0.022,0.066,0.075
-0.4685,-0.7035,-0.2345,0.5865,-0.117,-0.4685,-0.126,-0.161,-0.2765,-0.1835,-0.417,-0.1865,-0.0295,0.059,0.072
-0.4745,-0.7165,-0.2425,0.596,-0.116,-0.479,-0.126,-0.1595,-0.2775,-0.186,-0.4205,-0.191,-0.0345,0.0505,0.0695
-0.478,-0.729,-0.251,0.6035,-0.1135,-0.4895,-0.1245,-0.159,-0.277,-0.1885,-0.4225,-0.1935,-0.0355,0.045,0.0635
-0.474,-0.727,-0.253,0.6005,-0.1105,-0.4895,-0.119,-0.1555,-0.2745,-0.1885,-0.423,-0.1945,-0.0375,0.032,0.06
-0.475,-0.7305,-0.2555,0.603,-0.11,-0.4925,-0.1135,-0.15,-0.2695,-0.1875,-0.42,-0.1935,-0.0365,0.0225,0.0585
-0.488,-0.7535,-0.2655,0.621,-0.1115,-0.509,-0.109,-0.146,-0.2665,-0.184,-0.418,-0.1905,-0.0355,0.0135,0.0525
-0.4995,-0.7665,-0.2675,0.6335,-0.116,-0.5165,-0.1135,-0.149,-0.2715,-0.1865,-0.4215,-0.1945,-0.036,0.0085,0.0525
-0.497,-0.761,-0.264,0.6295,-0.1165,-0.512,-0.115,-0.151,-0.273,-0.188,-0.424,-0.194,-0.0335,0.0115,0.0545
-0.485,-0.739,-0.254,0.612,-0.1155,-0.496,-0.111,-0.1485,-0.2715,-0.1865,-0.4245,-0.1935,-0.0365,0.019,0.053
-0.472,-0.7275,-0.2555,0.6,-0.108,-0.4915,-0.1095,-0.1465,-0.2705,-0.185,-0.424,-0.195,-0.0395,0.026,0.053
-0.4815,-0.749,-0.2675,0.6155,-0.107,-0.508,-0.1085,-0.147,-0.271,-0.187,-0.427,-0.196,-0.0405,0.0325,0.052
-0.4935,-0.7525,-0.259,0.6235,-0.1175,-0.5055,-0.113,-0.153,-0.2765,-0.19,-0.435,-0.202,-0.043,0.034,0.0525
-0.4985,-0.757,-0.2585,0.628,-0.12,-0.5075,-0.117,-0.1565,-0.281,-0.194,-0.44,-0.2055,-0.0435,0.024,0.05
-0.4965,-0.7655,-0.269,0.631,-0.114,-0.517,-0.1225,-0.1615,-0.287,-0.1995,-0.444,-0.209,-0.0425,0.0265,0.052
-0.4855,-0.7525,-0.2665,0.6195,-0.1095,-0.509,-0.1245,-0.165,-0.291,-0.202,-0.4475,-0.2115,-0.0445,0.034,0.056
-0.468,-0.729,-0.261,0.5985,-0.1035,-0.4945,-0.123,-0.1615,-0.286,-0.1995,-0.445,-0.2085,-0.043,0.036,0.0575
-0.468,-0.7355,-0.2675,0.602,-0.1,-0.5015,-0.128,-0.169,-0.2935,-0.2045,-0.449,-0.212,-0.0465,0.037,0.0615
-0.477,-0.748,-0.271,0.613,-0.103,-0.5095,-0.126,-0.166,-0.2925,-0.203,-0.446,-0.2095,-0.0475,0.041,0.0585
-0.4685,-0.7315,-0.2635,0.6005,-0.1025,-0.4975,-0.1215,-0.1545,-0.2805,-0.191,-0.436,-0.201,-0.0405,0.041,0.054
-0.4625,-0.7175,-0.2555,0.5905,-0.1035,-0.4865,-0.113,-0.152,-0.277,-0.187,-0.43,-0.196,-0.042,0.035,0.055
-0.4595,-0.708,-0.249,0.584,-0.1055,-0.4785,-0.106,-0.147,-0.2715,-0.1835,-0.424,-0.1915,-0.044,0.0345,0.054
-0.477,-0.7255,-0.2485,0.6015,-0.114,-0.4865,-0.1125,-0.154,-0.278,-0.1915,-0.431,-0.1985,-0.0465,0.039,0.055
-0.4705,-0.7255,-0.255,0.598,-0.108,-0.49,-0.111,-0.151,-0.2765,-0.1905,-0.4295,-0.195,-0.0435,0.0375,0.058
-0.46,-0.7175,-0.257,0.589,-0.1015,-0.487,-0.1045,-0.144,-0.27,-0.185,-0.4245,-0.1895,-0.0435,0.037,0.0585
-0.4595,-0.725,-0.265,0.5925,-0.0975,-0.4945,-0.109,-0.1495,-0.2755,-0.19,-0.4275,-0.1935,-0.047,0.0345,0.058
-0.4515,-0.7325,-0.281,0.5925,-0.0855,-0.5065,-0.116,-0.155,-0.2815,-0.1945,-0.4325,-0.198,-0.046,0.0255,0.0595
-0.457,-0.742,-0.2855,0.5995,-0.0855,-0.5135,-0.121,-0.161,-0.2865,-0.202,-0.4415,-0.2065,-0.048,0.031,0.0585
-0.466,-0.7475,-0.2815,0.607,-0.0925,-0.514,-0.126,-0.165,-0.291,-0.2065,-0.4475,-0.2135,-0.05,0.0345,0.0585
-0.473,-0.7465,-0.273,0.61,-0.1,-0.5095,-0.1265,-0.1655,-0.291,-0.2055,-0.447,-0.2105,-0.048,0.034,0.0615
-0.466,-0.7385,-0.273,0.6025,-0.0965,-0.5055,-0.1245,-0.1615,-0.286,-0.199,-0.4445,-0.2055,-0.0455,0.0305,0.0615
-0.45,-0.7245,-0.275,0.5875,-0.0875,-0.4995,-0.1165,-0.1545,-0.279,-0.1915,-0.4405,-0.2025,-0.0465,0.026,0.0595
-0.4315,-0.697,-0.2655,0.5645,-0.083,-0.481,-0.111,-0.1505,-0.2745,-0.187,-0.436,-0.197,-0.045,0.026,0.059
-0.442,-0.7065,-0.2645,0.5745,-0.089,-0.4855,-0.1145,-0.1525,-0.276,-0.19,-0.439,-0.2,-0.044,0.027,0.057
-0.4605,-0.725,-0.2645,0.593,-0.098,-0.4945,-0.1095,-0.1485,-0.2735,-0.188,-0.4395,-0.2025,-0.047,0.0205,0.0525
-0.461,-0.7315,-0.2705,0.5965,-0.095,-0.501,-0.104,-0.142,-0.2715,-0.186,-0.4395,-0.2025,-0.049,0.0075,0.0505
-0.455,-0.7335,-0.279,0.5945,-0.088,-0.506,-0.101,-0.138,-0.27,-0.187,-0.444,-0.205,-0.0495,0.0035,0.05
-0.4545,-0.7295,-0.275,0.592,-0.0895,-0.502,-0.094,-0.1315,-0.267,-0.1905,-0.45,-0.2135,-0.057,-0.004,0.0415
-0.467,-0.7345,-0.2675,0.601,-0.0995,-0.501,-0.0845,-0.1255,-0.266,-0.199,-0.4625,-0.229,-0.069,-0.0055,0.0335
-0.4795,-0.754,-0.2745,0.617,-0.1025,-0.514,-0.071,-0.118,-0.263,-0.2035,-0.4695,-0.238,-0.0785,-0.0115,0.0255
-0.4865,-0.778,-0.2915,0.6325,-0.0975,-0.5345,-0.057,-0.1055,-0.251,-0.197,-0.4685,-0.239,-0.0845,-0.0165,0.014
-0.482,-0.7795,-0.2975,0.631,-0.092,-0.5385,-0.042,-0.0935,-0.24,-0.1925,-0.471,-0.2455,-0.0945,-0.014,0.0055
-0.4785,-0.7715,-0.293,0.625,-0.0925,-0.532,-0.0285,-0.085,-0.232,-0.191,-0.474,-0.252,-0.1035,-0.013,-0.001
-0.488,-0.773,-0.285,0.631,-0.1015,-0.529,-0.015,-0.072,-0.214,-0.1765,-0.47,-0.2555,-0.1065,-0.015,-0.0125
-0.4995,-0.772,-0.273,0.636,-0.113,-0.5225,-0.0065,-0.0565,-0.195,-0.165,-0.469,-0.264,-0.1105,-0.0145,-0.0295
-0.5055,-0.7625,-0.257,0.634,-0.1245,-0.5095,-0.0075,-0.0475,-0.1755,-0.1485,-0.461,-0.264,-0.1075,0.0,-0.044
-0.514,-0.7625,-0.248,0.6385,-0.133,-0.505,-0.013,-0.0425,-0.1545,-0.122,-0.444,-0.2565,-0.0985,0.0065,-0.049
-0.5155,-0.765,-0.249,0.6405,-0.133,-0.507,-0.0085,-0.0205,-0.1135,-0.077,-0.4085,-0.2385,-0.081,0.001,-0.059
-0.505,-0.772,-0.267,0.6385,-0.119,-0.5195,-0.0135,0.003,-0.067,-0.0145,-0.3615,-0.207,-0.0485,-0.0105,-0.066
-0.5065,-0.779,-0.2725,0.643,-0.117,-0.5255,-0.0415,0.0005,-0.045,0.029,-0.3285,-0.189,-0.0165,-0.01,-0.067
-0.4865,-0.7615,-0.275,0.624,-0.1055,-0.518,-0.0625,0.01,-0.0075,0.0935,-0.27,-0.1505,0.027,-0.0105,-0.0685
-0.462,-0.754,-0.292,0.608,-0.085,-0.5225,-0.076,0.0345,0.0445,0.1725,-0.2025,-0.1025,0.0735,-0.016,-0.0715
-0.4465,-0.748,-0.3015,0.5975,-0.0725,-0.5245,-0.0825,0.075,0.112,0.255,-0.1425,-0.0695,0.1135,-0.014,-0.089
-0.4075,-0.7275,-0.32,0.568,-0.0435,-0.5235,-0.081,0.1295,0.188,0.35,-0.07,-0.018,0.166,-0.018,-0.102
-0.3885,-0.732,-0.3435,0.5605,-0.0225,-0.5375,-0.0765,0.1855,0.2635,0.4385,-0.007,0.019,0.2125,-0.0235,-0.125
-0.3765,-0.744,-0.3675,0.5605,-0.0045,-0.5555,-0.0595,0.2765,0.379,0.561,0.0735,0.059,0.267,-0.031,-0.1675
-0.355,-0.737,-0.382,0.5465,0.0135,-0.5595,-0.0405,0.3805,0.5165,0.707,0.1755,0.121,0.336,-0.04,-0.213
-0.3255,-0.719,-0.3935,0.5225,0.034,-0.556,-0.03,0.4615,0.636,0.841,0.271,0.1825,0.4015,-0.035,-0.245
-0.296,-0.7055,-0.41,0.501,0.057,-0.5575,-0.0155,0.5525,0.7575,0.977,0.37,0.2445,0.4665,-0.026,-0.279
-0.255,-0.688,-0.4325,0.4715,0.0885,-0.56,-0.0055,0.6445,0.8955,1.1365,0.489,0.322,0.5515,-0.015,-0.326
-0.201,-0.656,-0.455,0.4285,0.127,-0.5555,-0.003,0.7295,1.0415,1.3195,0.6335,0.426,0.665,0.0055,-0.3745
-0.146,-0.6145,-0.469,0.3805,0.161,-0.5415,-0.004,0.815,1.202,1.532,0.811,0.548,0.7975,0.029,-0.4225
-0.088,-0.5765,-0.4885,0.3325,0.1995,-0.532,-0.014,0.887,1.3595,1.7575,0.998,0.675,0.9375,0.0595,-0.463
-0.0305,-0.536,-0.5055,0.2835,0.237,-0.5205,-0.0105,0.97,1.511,1.978,1.1805,0.8005,1.0655,0.0795,-0.502
0.036,-0.4985,-0.5345,0.2315,0.2845,-0.516,0.0005,1.054,1.659,2.1985,1.369,0.93,1.194,0.0835,-0.544
0.096,-0.468,-0.564,0.1865,0.33,-0.516,-0.0065,1.1285,1.8025,2.419,1.556,1.0585,1.3305,0.0995,-0.582
0.1375,-0.4405,-0.578,0.152,0.3575,-0.509,-0.017,1.1795,1.906,2.584,1.7035,1.1645,1.444,0.1225,-0.607
0.167,-0.417,-0.584,0.125,0.375,-0.5,-0.0105,1.222,1.998,2.7195,1.8235,1.254,1.533,0.1525,-0.6395
0.211,-0.377,-0.588,0.083,0.399,-0.4825,-0.001,1.27,2.1105,2.879,1.962,1.3555,1.636,0.186,-0.677
0.2465,-0.3545,-0.601,0.0545,0.423,-0.4775,0.0095,1.2975,2.173,2.973,2.053,1.4335,1.716,0.199,-0.703
0.2825,-0.3045,-0.587,0.011,0.4345,-0.4455,-0.008,1.28,2.1785,3.0185,2.122,1.504,1.7815,0.232,-0.705
0.339,-0.242,-0.5815,-0.0485,0.4595,-0.4115,-0.058,1.2485,2.182,3.0725,2.214,1.5975,1.8655,0.2705,-0.683
0.3795,-0.2155,-0.595,-0.082,0.4865,-0.405,-0.097,1.1975,2.148,3.0435,2.2365,1.653,1.906,0.2935,-0.6495
0.399,-0.1815,-0.5805,-0.108,0.489,-0.3805,-0.153,1.0675,2.035,2.9285,2.1945,1.6715,1.909,0.329,-0.596
0.4055,-0.154,-0.5595,-0.1255,0.482,-0.356,-0.166,0.966,1.9275,2.7945,2.1215,1.6665,1.887,0.3505,-0.5585
0.4085,-0.1235,-0.5315,-0.1425,0.4695,-0.327,-0.1555,0.8835,1.822,2.653,2.0305,1.642,1.8455,0.3765,-0.5305
0.4145,-0.0935,-0.5085,-0.1605,0.461,-0.301,-0.205,0.7445,1.676,2.5105,1.9545,1.6325,1.822,0.407,-0.469
0.4235,-0.0655,-0.489,-0.1785,0.4555,-0.277,-0.273,0.5885,1.519,2.37,1.887,1.631,1.8025,0.433,-0.382
0.423,-0.0325,-0.4555,-0.195,0.4385,-0.2435,-0.3675,0.409,1.343,2.214,1.8085,1.6155,1.7745,0.456,-0.286
0.4165,0.0065,-0.41,-0.2115,0.413,-0.2015,-0.466,0.224,1.1615,2.0525,1.727,1.599,1.745,0.494,-0.1865
0.397,0.038,-0.3585,-0.217,0.377,-0.16,-0.5465,0.039,0.9635,1.8795,1.643,1.58,1.7085,0.5455,-0.091
0.357,0.049,-0.3085,-0.2025,0.3325,-0.1295,-0.5915,-0.131,0.756,1.678,1.5325,1.5345,1.645,0.5745,-0.0115
0.3115,0.0665,-0.245,-0.189,0.2775,-0.089,-0.6105,-0.298,0.5465,1.46,1.3975,1.4665,1.562,0.6055,0.0655
0.2495,0.0745,-0.175,-0.1615,0.2115,-0.05,-0.6535,-0.494,0.3015,1.211,1.2515,1.4,1.4725,0.632,0.1645
0.189,0.0905,-0.0985,-0.1395,0.1435,-0.004,-0.7195,-0.7185,0.024,0.932,1.0945,1.332,1.3725,0.663,0.2855
0.1035,0.1355,0.0325,-0.1195,0.0355,0.0845,-0.7915,-0.947,-0.2535,0.661,0.939,1.2545,1.2655,0.7225,0.4055
-0.0015,0.1575,0.1585,-0.0775,-0.08,0.1585,-0.8475,-1.1455,-0.5125,0.4035,0.783,1.1735,1.151,0.7735,0.517
-0.08,0.161,0.2405,-0.0405,-0.16,0.201,-0.914,-1.3365,-0.7725,0.1465,0.6325,1.1025,1.0485,0.8145,0.6285
-0.1615,0.1785,0.3405,-0.008,-0.251,0.2595,-0.9845,-1.5325,-1.0195,-0.0865,0.5015,1.0365,0.9545,0.8665,0.7215
-0.223,0.236,0.4595,-0.006,-0.3415,0.348,-1.059,-1.735,-1.2695,-0.329,0.3505,0.9505,0.849,0.9435,0.8145
-0.278,0.2525,0.53,0.013,-0.404,0.3915,-1.108,-1.8765,-1.487,-0.5595,0.1945,0.858,0.741,0.9795,0.898
-0.3515,0.184,0.5355,0.084,-0.4435,0.3605,-1.1165,-1.9735,-1.678,-0.7735,0.04,0.7605,0.622,0.9385,0.9695
-0.4015,0.1325,0.5335,0.1345,-0.4675,0.3335,-1.131,-2.0585,-1.8395,-0.9635,-0.097,0.679,0.5205,0.8975,1.035
-0.4315,0.115,0.547,0.1585,-0.489,0.331,-1.142,-2.1105,-1.9455,-1.0965,-0.1995,0.6185,0.4445,0.889,1.079
-0.464,0.1075,0.571,0.1785,-0.5175,0.3395,-1.1405,-2.1525,-2.0325,-1.2085,-0.298,0.549,0.3695,0.8935,1.105
-0.4925,0.0865,0.579,0.203,-0.5355,0.333,-1.122,-2.1475,-2.05,-1.2535,-0.358,0.5025,0.3155,0.884,1.1075
-0.5145,0.0825,0.597,0.216,-0.5555,0.34,-1.0895,-2.1085,-2.0185,-1.262,-0.4055,0.4575,0.264,0.89,1.1005
-0.538,0.088,0.626,0.2255,-0.582,0.357,-1.0675,-2.081,-2.003,-1.29,-0.4705,0.397,0.2,0.906,1.0955
-0.5655,0.083,0.6485,0.2415,-0.607,0.366,-1.0725,-2.0705,-1.999,-1.32,-0.5295,0.3405,0.144,0.9195,1.097
-0.575,0.0695,0.6445,0.253,-0.6095,0.357,-1.0795,-2.043,-1.974,-1.3245,-0.57,0.2965,0.102,0.9105,1.091
-0.5635,0.0425,0.606,0.261,-0.585,0.3245,-1.09,-2.003,-1.939,-1.3215,-0.6005,0.265,0.0755,0.8775,1.082
-0.56,0.042,0.602,0.259,-0.581,0.3225,-1.101,-1.964,-1.9075,-1.322,-0.6345,0.23,0.054,0.876,1.0885
-0.564,0.042,0.6065,0.261,-0.5855,0.3245,-1.114,-1.9215,-1.866,-1.3115,-0.662,0.192,0.0345,0.8795,1.0925
-0.5625,0.0135,0.5755,0.275,-0.569,0.295,-1.122,-1.87,-1.8175,-1.2905,-0.684,0.1535,0.0185,0.856,1.084
-0.5435,-0.015,0.528,0.2795,-0.536,0.257,-1.1255,-1.8065,-1.755,-1.255,-0.6945,0.1295,0.0135,0.8175,1.073
-0.519,-0.036,0.4825,0.2775,-0.501,0.2235,-1.13,-1.74,-1.689,-1.2135,-0.692,0.114,0.013,0.783,1.0575
-0.525,-0.0715,0.4535,0.2985,-0.489,0.1915,-1.111,-1.666,-1.627,-1.179,-0.7085,0.068,-0.015,0.7605,1.0255
-0.5385,-0.1065,0.432,0.3225,-0.485,0.163,-1.0915,-1.599,-1.569,-1.152,-0.729,0.0185,-0.042,0.734,0.995
-0.537,-0.1315,0.4055,0.3345,-0.4715,0.1375,-1.0665,-1.531,-1.5095,-1.118,-0.741,-0.014,-0.058,0.7,0.965
-0.5425,-0.1515,0.391,0.3475,-0.467,0.12,-1.035,-1.4625,-1.4505,-1.0855,-0.751,-0.047,-0.0765,0.682,0.9325
-0.5485,-0.167,0.3815,0.358,-0.465,0.1075,-1.0065,-1.4035,-1.4,-1.053,-0.752,-0.07,-0.089,0.6655,0.907
-0.5515,-0.1985,0.353,0.3755,-0.4525,0.0775,-0.968,-1.337,-1.3465,-1.021,-0.759,-0.099,-0.1075,0.634,0.8725
-0.554,-0.237,0.317,0.3955,-0.4355,0.0405,-0.9215,-1.259,-1.281,-0.982,-0.76,-0.1295,-0.125,0.6065,0.825
-0.555,-0.258,0.297,0.407,-0.426,0.0195,-0.8745,-1.1875,-1.218,-0.9395,-0.754,-0.1495,-0.1355,0.5865,0.7835
-0.555,-0.269,0.286,0.4125,-0.4205,0.009,-0.8235,-1.115,-1.156,-0.896,-0.746,-0.165,-0.1415,0.567,0.7415
-0.56,-0.291,0.2695,0.426,-0.415,-0.0105,-0.763,-1.035,-1.088,-0.8515,-0.7415,-0.191,-0.152,0.542,0.688
-0.5635,-0.317,0.2465,0.4405,-0.405,-0.035,-0.7015,-0.957,-1.019,-0.808,-0.7395,-0.222,-0.1675,0.5165,0.635
-0.5645,-0.3355,0.2285,0.4505,-0.3965,-0.0535,-0.6415,-0.881,-0.9525,-0.7615,-0.727,-0.237,-0.1775,0.4895,0.583
-0.568,-0.359,0.2085,0.464,-0.388,-0.075,-0.5945,-0.8205,-0.9015,-0.728,-0.72,-0.252,-0.1815,0.4645,0.5385
-0.5615,-0.3835,0.1785,0.4725,-0.37,-0.102,-0.55,-0.7675,-0.854,-0.697,-0.7115,-0.2615,-0.187,0.441,0.5025
-0.554,-0.4005,0.1535,0.4775,-0.3535,-0.1235,-0.4965,-0.707,-0.801,-0.6555,-0.6925,-0.259,-0.191,0.4095,0.4625
-0.547,-0.418,0.1285,0.483,-0.338,-0.1445,-0.451,-0.652,-0.7515,-0.6185,-0.6755,-0.26,-0.1875,0.386,0.4215
-0.568,-0.459,0.1095,0.5135,-0.3385,-0.1745,-0.4175,-0.6155,-0.7225,-0.602,-0.6765,-0.278,-0.194,0.366,0.39
-0.5875,-0.5115,0.076,0.5495,-0.332,-0.2175,-0.384,-0.5785,-0.6925,-0.585,-0.68,-0.2945,-0.1985,0.33,0.361
-0.5885,-0.553,0.0355,0.571,-0.3125,-0.2585,-0.3505,-0.5355,-0.6535,-0.559,-0.674,-0.3045,-0.2005,0.2955,0.331
-0.589,-0.579,0.0095,0.5845,-0.2995,-0.2845,-0.3165,-0.4935,-0.617,-0.5355,-0.666,-0.3105,-0.2035,0.268,0.3035
-0.5515,-0.551,0.0005,0.5515,-0.276,-0.275,-0.277,-0.448,-0.5735,-0.5005,-0.646,-0.3035,-0.204,0.2515,0.278
-0.5345,-0.544,-0.01,0.5395,-0.2625,-0.277,-0.2475,-0.412,-0.541,-0.475,-0.6365,-0.308,-0.21,0.2345,0.253
-0.5435,-0.5775,-0.034,0.5605,-0.2545,-0.3055,-0.2205,-0.3775,-0.5105,-0.454,-0.6315,-0.3125,-0.2075,0.205,0.2265
-0.538,-0.5825,-0.0445,0.5605,-0.247,-0.313,-0.1945,-0.344,-0.4795,-0.4285,-0.6185,-0.31,-0.205,0.1815,0.2035
-0.5435,-0.6085,-0.065,0.5765,-0.2395,-0.3365,-0.1695,-0.312,-0.4525,-0.407,-0.6095,-0.3085,-0.199,0.152,0.1835
-0.5495,-0.645,-0.0955,0.5975,-0.227,-0.37,-0.1485,-0.2825,-0.427,-0.387,-0.6025,-0.3075,-0.192,0.132,0.1625
-0.5425,-0.6615,-0.119,0.602,-0.2115,-0.39,-0.135,-0.262,-0.409,-0.3735,-0.599,-0.3105,-0.191,0.126,0.147
-0.5405,-0.677,-0.1365,0.609,-0.202,-0.4065,-0.119,-0.241,-0.3915,-0.359,-0.5945,-0.313,-0.186,0.114,0.133
-0.542,-0.693,-0.151,0.6175,-0.1955,-0.4215,-0.1085,-0.225,-0.3775,-0.3485,-0.593,-0.317,-0.1805,0.093,0.117
-0.546,-0.709,-0.163,0.628,-0.1915,-0.4355,-0.0975,-0.21,-0.3645,-0.343,-0.5925,-0.3195,-0.176,0.078,0.1065
-0.5435,-0.714,-0.17,0.629,-0.187,-0.442,-0.0855,-0.196,-0.3495,-0.331,-0.586,-0.3165,-0.171,0.0725,0.0965
-0.525,-0.706,-0.181,0.616,-0.172,-0.4435,-0.0755,-0.183,-0.335,-0.3185,-0.5785,-0.3095,-0.1665,0.067,0.088
-0.522,-0.7145,-0.1925,0.6185,-0.165,-0.453,-0.0645,-0.1665,-0.322,-0.308,-0.572,-0.3075,-0.164,0.0595,0.0785
-0.521,-0.7245,-0.203,0.623,-0.159,-0.4635,-0.0535,-0.15,-0.307,-0.296,-0.5635,-0.3025,-0.16,0.0445,0.0665
-0.5225,-0.7375,-0.2145,0.6305,-0.154,-0.4755,-0.045,-0.1405,-0.297,-0.289,-0.5565,-0.3,-0.158,0.0375,0.0575
-0.5295,-0.757,-0.2275,0.6435,-0.151,-0.492,-0.042,-0.136,-0.292,-0.2865,-0.557,-0.3025,-0.1545,0.0365,0.0515
-0.5195,-0.7595,-0.24,0.6395,-0.1395,-0.4995,-0.033,-0.122,-0.279,-0.276,-0.551,-0.296,-0.1515,0.032,0.0425
-0.517,-0.761,-0.244,0.639,-0.1365,-0.502,-0.0285,-0.1135,-0.272,-0.2695,-0.5455,-0.2935,-0.147,0.028,0.035
-0.508,-0.756,-0.248,0.6325,-0.13,-0.502,-0.027,-0.108,-0.2655,-0.266,-0.546,-0.2915,-0.142,0.0255,0.0375
-0.503,-0.7515,-0.2485,0.6275,-0.127,-0.4995,-0.018,-0.098,-0.258,-0.26,-0.5415,-0.291,-0.143,0.025,0.0355
-0.5145,-0.7485,-0.2335,0.6315,-0.1405,-0.4905,-0.016,-0.0955,-0.258,-0.2615,-0.545,-0.298,-0.144,0.0285,0.03
-0.5035,-0.742,-0.2385,0.623,-0.1325,-0.49,-0.011,-0.0905,-0.2515,-0.258,-0.548,-0.3005,-0.146,0.0255,0.023
-0.498,-0.752,-0.2535,0.625,-0.122,-0.5025,-0.0065,-0.084,-0.244,-0.252,-0.542,-0.299,-0.144,0.018,0.0165
-0.514,-0.7665,-0.2525,0.6405,-0.131,-0.5095,-0.007,-0.084,-0.245,-0.2515,-0.5445,-0.3005,-0.1425,0.018,0.0145
-0.5225,-0.7705,-0.2485,0.647,-0.137,-0.509,-0.005,-0.0815,-0.2425,-0.25,-0.5475,-0.3025,-0.1445,0.0035,0.013
-0.5115,-0.7625,-0.251,0.6375,-0.13,-0.5065,-0.0005,-0.0755,-0.235,-0.2425,-0.5425,-0.299,-0.141,-0.0115,0.0105
-0.501,-0.757,-0.256,0.6295,-0.123,-0.506,0.0065,-0.068,-0.23,-0.2385,-0.5395,-0.298,-0.1405,-0.0175,0.0075
-0.506,-0.761,-0.255,0.6335,-0.1255,-0.5075,0.008,-0.064,-0.228,-0.239,-0.5405,-0.3005,-0.142,-0.0145,0.0055
-0.512,-0.766,-0.254,0.639,-0.129,-0.51,0.0065,-0.0675,-0.23,-0.24,-0.545,-0.306,-0.145,-0.0035,0.001
-0.513,-0.7685,-0.2555,0.641,-0.129,-0.512,0.01,-0.064,-0.2285,-0.238,-0.5445,-0.303,-0.1455,-0.005,-0.0005
-0.515,-0.7695,-0.2545,0.643,-0.13,-0.512,0.014,-0.0595,-0.224,-0.2345,-0.5445,-0.2995,-0.144,-0.0065,-0.001
-0.5165,-0.764,-0.2475,0.6405,-0.1345,-0.5055,0.0155,-0.059,-0.2235,-0.2355,-0.546,-0.3055,-0.1495,-0.005,-0.0045
-0.5195,-0.7635,-0.244,0.642,-0.1375,-0.504,0.0155,-0.0565,-0.224,-0.238,-0.5485,-0.3085,-0.1505,-0.006,-0.0085
-0.525,-0.7725,-0.2475,0.649,-0.139,-0.5095,0.0155,-0.054,-0.2215,-0.2365,-0.546,-0.305,-0.146,-0.007,-0.008
-0.5195,-0.777,-0.258,0.6485,-0.1305,-0.5175,0.0215,-0.0485,-0.215,-0.2295,-0.5395,-0.3005,-0.1455,-0.017,-0.0105
-0.5215,-0.786,-0.2645,0.654,-0.1285,-0.525,0.02,-0.0465,-0.214,-0.2305,-0.545,-0.304,-0.1465,-0.022,-0.0155
-0.527,-0.786,-0.259,0.657,-0.134,-0.5225,0.018,-0.0475,-0.217,-0.2335,-0.546,-0.3055,-0.145,-0.012,-0.015
-0.5215,-0.7785,-0.2575,0.65,-0.132,-0.5175,0.024,-0.0425,-0.2125,-0.2315,-0.542,-0.3025,-0.144,-0.0125,-0.016
-0.515,-0.773,-0.258,0.6445,-0.1285,-0.5155,0.029,-0.0365,-0.207,-0.228,-0.5395,-0.2995,-0.143,-0.018,-0.0145
-0.507,-0.77,-0.263,0.639,-0.122,-0.5165,0.033,-0.0335,-0.204,-0.226,-0.537,-0.2995,-0.1415,-0.0225,-0.0135
-0.5085,-0.78,-0.271,0.6445,-0.1185,-0.5255,0.0325,-0.033,-0.204,-0.2265,-0.539,-0.3005,-0.142,-0.028,-0.018
-0.526,-0.796,-0.2695,0.6615,-0.1285,-0.5325,0.0265,-0.04,-0.2095,-0.232,-0.546,-0.306,-0.1415,-0.023,-0.021
-0.532,-0.8035,-0.2715,0.668,-0.1305,-0.537,0.0235,-0.041,-0.2095,-0.2335,-0.5495,-0.3095,-0.1405,-0.0185,-0.0195
-0.524,-0.797,-0.273,0.6605,-0.1255,-0.5345,0.028,-0.0355,-0.204,-0.2285,-0.5455,-0.307,-0.14,-0.0165,-0.0175
-0.521,-0.7905,-0.269,0.656,-0.126,-0.5295,0.032,-0.0315,-0.2005,-0.225,-0.5435,-0.305,-0.14,-0.021,-0.0175
-0.5125,-0.786,-0.2735,0.6495,-0.1195,-0.5295,0.034,-0.0255,-0.1975,-0.221,-0.5415,-0.3015,-0.1385,-0.0365,-0.0205
-0.5065,-0.7795,-0.273,0.6435,-0.117,-0.526,0.036,-0.0245,-0.1965,-0.219,-0.542,-0.305,-0.142,-0.0345,-0.0225
-0.513,-0.7805,-0.2675,0.647,-0.123,-0.5235,0.0375,-0.024,-0.1965,-0.221,-0.546,-0.3125,-0.149,-0.031,-0.024
-0.52,-0.7915,-0.2715,0.656,-0.124,-0.5315,0.04,-0.021,-0.197,-0.22,-0.544,-0.307,-0.145,-0.0365,-0.0265
-0.522,-0.797,-0.275,0.6595,-0.1235,-0.536,0.0415,-0.021,-0.198,-0.2195,-0.5435,-0.306,-0.144,-0.044,-0.029
-0.5115,-0.782,-0.2705,0.647,-0.1205,-0.526,0.0445,-0.018,-0.195,-0.214,-0.5425,-0.3075,-0.1475,-0.0525,-0.032
-0.4805,-0.752,-0.2715,0.6165,-0.1045,-0.5115,0.0515,-0.0085,-0.1865,-0.2055,-0.5355,-0.299,-0.1475,-0.0455,-0.0335
-0.4735,-0.7405,-0.2665,0.607,-0.1035,-0.503,0.0515,-0.0075,-0.185,-0.2075,-0.536,-0.3015,-0.1475,-0.0345,-0.035
-0.497,-0.759,-0.262,0.628,-0.1175,-0.51,0.046,-0.0155,-0.193,-0.2155,-0.5435,-0.309,-0.148,-0.032,-0.034
-0.5085,-0.778,-0.2695,0.644,-0.1195,-0.5235,0.0475,-0.0155,-0.193,-0.2165,-0.544,-0.3105,-0.149,-0.032,-0.036
-0.5155,-0.7855,-0.27,0.6505,-0.1225,-0.5275,0.0485,-0.0145,-0.191,-0.218,-0.5445,-0.3105,-0.1495,-0.035,-0.037
-0.515,-0.781,-0.2665,0.648,-0.1245,-0.5235,0.052,-0.012,-0.1895,-0.2185,-0.543,-0.3125,-0.1525,-0.036,-0.037
-0.5145,-0.78,-0.2655,0.6475,-0.1245,-0.5225,0.055,-0.007,-0.1835,-0.2125,-0.536,-0.308,-0.15,-0.037,-0.0395
-0.519,-0.785,-0.266,0.652,-0.1265,-0.525,0.0545,-0.007,-0.1825,-0.215,-0.538,-0.3045,-0.148,-0.034,-0.0365
-0.522,-0.795,-0.273,0.659,-0.1245,-0.534,0.054,-0.007,-0.184,-0.218,-0.5415,-0.311,-0.151,-0.0295,-0.035
-0.5255,-0.8065,-0.2815,0.6665,-0.122,-0.544,0.0565,-0.0035,-0.1805,-0.2145,-0.5385,-0.31,-0.151,-0.037,-0.0355
-0.5265,-0.81,-0.2835,0.6685,-0.1215,-0.5465,0.058,-0.0025,-0.178,-0.214,-0.5365,-0.31,-0.152,-0.0365,-0.0375
-0.525,-0.8135,-0.2885,0.6695,-0.1185,-0.551,0.057,-0.0045,-0.178,-0.2145,-0.539,-0.311,-0.15,-0.028,-0.0385
-0.535,-0.823,-0.288,0.679,-0.1235,-0.555,0.054,-0.0075,-0.182,-0.218,-0.5435,-0.314,-0.15,-0.0375,-0.0375
-0.5445,-0.83,-0.2855,0.6875,-0.1295,-0.5575,0.048,-0.0135,-0.1885,-0.2245,-0.5505,-0.324,-0.154,-0.047,-0.037
-0.548,-0.8285,-0.2805,0.6885,-0.134,-0.5545,0.0455,-0.014,-0.1895,-0.2265,-0.554,-0.328,-0.154,-0.046,-0.0395
-0.541,-0.814,-0.273,0.6775,-0.134,-0.543,0.052,-0.0075,-0.185,-0.2225,-0.5495,-0.3255,-0.157,-0.0475,-0.042
-0.5275,-0.8005,-0.2735,0.6645,-0.127,-0.537,0.058,-0.0015,-0.1785,-0.2155,-0.546,-0.3215,-0.156,-0.046,-0.0435
-0.5355,-0.8105,-0.275,0.673,-0.13,-0.5425,0.0585,-0.0035,-0.181,-0.218,-0.549,-0.324,-0.162,-0.051,-0.045
-0.542,-0.8105,-0.269,0.6765,-0.1365,-0.5395,0.057,-0.0055,-0.184,-0.2215,-0.5535,-0.33,-0.1645,-0.044,-0.0475
-0.543,-0.802,-0.2595,0.6725,-0.142,-0.5305,0.054,-0.003,-0.1805,-0.2195,-0.5525,-0.331,-0.156,-0.038,-0.05
-0.5435,-0.8115,-0.268,0.678,-0.138,-0.5395,0.057,-0.002,-0.181,-0.219,-0.553,-0.3305,-0.1575,-0.0455,-0.0495
-0.55,-0.821,-0.2705,0.686,-0.14,-0.5455,0.0595,-0.002,-0.18,-0.2205,-0.553,-0.331,-0.1595,-0.0365,-0.05
-0.536,-0.8045,-0.2685,0.6705,-0.134,-0.5365,0.0655,0.0015,-0.1765,-0.2175,-0.5475,-0.326,-0.161,-0.033,-0.051
-0.5135,-0.7865,-0.2735,0.65,-0.12,-0.5295,0.074,0.0125,-0.167,-0.209,-0.543,-0.3215,-0.161,-0.037,-0.0505
-0.514,-0.7925,-0.2785,0.6535,-0.118,-0.535,0.0725,0.011,-0.1675,-0.21,-0.5455,-0.326,-0.16,-0.04,-0.0525
-0.5125,-0.797,-0.284,0.655,-0.114,-0.5405,0.069,0.009,-0.171,-0.2135,-0.5475,-0.3265,-0.159,-0.0395,-0.052
-0.5295,-0.81,-0.28,0.67,-0.1245,-0.545,0.0655,0.008,-0.1745,-0.218,-0.551,-0.3285,-0.1595,-0.0355,-0.0515
-0.5365,-0.8125,-0.276,0.6745,-0.13,-0.544,0.0665,0.008,-0.1765,-0.2195,-0.552,-0.3295,-0.1625,-0.0345,-0.053
-0.5195,-0.7945,-0.275,0.6575,-0.122,-0.5345,0.0735,0.017,-0.168,-0.2115,-0.5445,-0.3235,-0.161,-0.04,-0.054
-0.519,-0.7925,-0.274,0.656,-0.1225,-0.533,0.0765,0.0195,-0.167,-0.2105,-0.544,-0.322,-0.159,-0.0395,-0.0545
-0.518,-0.784,-0.266,0.651,-0.126,-0.5245,0.0755,0.0185,-0.1675,-0.2135,-0.5465,-0.3245,-0.16,-0.033,-0.055
-0.509,-0.7745,-0.265,0.642,-0.122,-0.5195,0.079,0.024,-0.163,-0.2095,-0.5445,-0.3215,-0.1595,-0.038,-0.0555
-0.518,-0.785,-0.267,0.652,-0.1255,-0.5255,0.0835,0.027,-0.1625,-0.209,-0.5445,-0.3205,-0.16,-0.0345,-0.0575
-0.535,-0.8,-0.2645,0.668,-0.135,-0.532,0.0795,0.0205,-0.1655,-0.2125,-0.551,-0.328,-0.1635,-0.029,-0.056
-0.5405,-0.799,-0.2585,0.67,-0.141,-0.5285,0.0795,0.022,-0.165,-0.2115,-0.5515,-0.3285,-0.162,-0.033,-0.0585
-0.5415,-0.7965,-0.255,0.669,-0.1435,-0.5255,0.084,0.028,-0.162,-0.2085,-0.5495,-0.326,-0.1625,-0.044,-0.0645
-0.5435,-0.8035,-0.2605,0.674,-0.141,-0.532,0.087,0.0275,-0.16,-0.207,-0.553,-0.328,-0.167,-0.05,-0.0655
-0.533,-0.799,-0.266,0.6665,-0.1335,-0.5325,0.0875,0.027,-0.1585,-0.205,-0.553,-0.329,-0.167,-0.0415,-0.064
-0.517,-0.782,-0.2655,0.6495,-0.1255,-0.5235,0.0915,0.031,-0.154,-0.201,-0.55,-0.3255,-0.1675,-0.0415,-0.058
-0.5145,-0.783,-0.2685,0.649,-0.123,-0.5255,0.094,0.031,-0.1545,-0.202,-0.551,-0.3285,-0.17,-0.046,-0.055
-0.505,-0.79,-0.285,0.6475,-0.11,-0.537,0.0935,0.03,-0.1575,-0.204,-0.5545,-0.333,-0.1715,-0.0515,-0.059
-0.499,-0.791,-0.292,0.645,-0.1035,-0.541,0.0945,0.034,-0.155,-0.2025,-0.553,-0.328,-0.1685,-0.058,-0.062
-0.505,-0.792,-0.2865,0.649,-0.1095,-0.539,0.096,0.0345,-0.1545,-0.202,-0.554,-0.327,-0.168,-0.059,-0.0645
-0.511,-0.781,-0.27,0.6465,-0.1205,-0.5255,0.0955,0.0325,-0.1565,-0.207,-0.5585,-0.334,-0.171,-0.0515,-0.0665
-0.513,-0.7775,-0.2645,0.6455,-0.124,-0.5205,0.095,0.032,-0.1575,-0.2105,-0.5605,-0.3395,-0.1745,-0.0445,-0.068
-0.5205,-0.789,-0.2685,0.655,-0.126,-0.5285,0.0925,0.03,-0.159,-0.2125,-0.5645,-0.342,-0.1755,-0.045,-0.0675
-0.5345,-0.8075,-0.273,0.6715,-0.131,-0.54,0.095,0.0315,-0.159,-0.2125,-0.565,-0.3395,-0.1735,-0.051,-0.0665
-0.546,-0.8225,-0.2765,0.684,-0.1345,-0.549,0.098,0.0345,-0.158,-0.2105,-0.562,-0.3385,-0.1735,-0.0575,-0.069
-0.543,-0.816,-0.273,0.6795,-0.135,-0.544,0.096,0.033,-0.159,-0.2145,-0.563,-0.3415,-0.176,-0.055,-0.0705
-0.517,-0.794,-0.277,0.6555,-0.12,-0.535,0.1075,0.0435,-0.151,-0.207,-0.5565,-0.3345,-0.1785,-0.0575,-0.069
-0.513,-0.789,-0.276,0.651,-0.1185,-0.5325,0.113,0.048,-0.1485,-0.205,-0.5565,-0.3355,-0.1805,-0.062,-0.0695
-0.527,-0.8045,-0.2775,0.666,-0.1245,-0.541,0.11,0.0435,-0.1515,-0.209,-0.564,-0.3415,-0.181,-0.065,-0.068
-0.525,-0.808,-0.283,0.667,-0.1215,-0.545,0.109,0.043,-0.151,-0.207,-0.566,-0.3435,-0.1805,-0.0665,-0.0685
-0.531,-0.8095,-0.2785,0.6705,-0.126,-0.544,0.106,0.041,-0.1555,-0.21,-0.5685,-0.3465,-0.182,-0.068,-0.0715
-0.532,-0.805,-0.273,0.6685,-0.1295,-0.5385,0.1085,0.042,-0.1555,-0.209,-0.569,-0.3475,-0.1835,-0.0645,-0.073
-0.5245,-0.7965,-0.272,0.6605,-0.126,-0.534,0.107,0.044,-0.1555,-0.2085,-0.57,-0.348,-0.182,-0.064,-0.073
-0.5355,-0.805,-0.2695,0.6705,-0.133,-0.537,0.108,0.0445,-0.1565,-0.209,-0.574,-0.351,-0.185,-0.067,-0.073
-0.558,-0.8155,-0.257,0.687,-0.1505,-0.536,0.1095,0.043,-0.157,-0.2125,-0.579,-0.3575,-0.191,-0.059,-0.0745
-0.5565,-0.8105,-0.254,0.6835,-0.1515,-0.532,0.1135,0.0465,-0.1575,-0.213,-0.5815,-0.357,-0.192,-0.049,-0.074
-0.5405,-0.804,-0.264,0.6725,-0.138,-0.5335,0.113,0.0465,-0.1575,-0.2125,-0.583,-0.3585,-0.1905,-0.0455,-0.073
-0.5285,-0.801,-0.2725,0.665,-0.128,-0.5365,0.109,0.044,-0.1595,-0.2155,-0.5865,-0.362,-0.189,-0.0525,-0.0745
-0.5305,-0.8035,-0.273,0.6675,-0.1285,-0.538,0.1115,0.0465,-0.1605,-0.2155,-0.5855,-0.3605,-0.1865,-0.0535,-0.075
-0.5545,-0.8225,-0.268,0.6885,-0.143,-0.545,0.108,0.043,-0.1655,-0.222,-0.5925,-0.368,-0.1895,-0.0465,-0.077
-0.5535,-0.826,-0.2725,0.69,-0.1405,-0.549,0.1125,0.0455,-0.1615,-0.2205,-0.5925,-0.3675,-0.1925,-0.046,-0.0785
-0.554,-0.825,-0.2705,0.6895,-0.142,-0.5475,0.1155,0.048,-0.1595,-0.219,-0.589,-0.3645,-0.1905,-0.0475,-0.0775
-0.5455,-0.8075,-0.262,0.6765,-0.142,-0.5345,0.114,0.047,-0.162,-0.2225,-0.593,-0.368,-0.191,-0.0465,-0.0795
-0.5405,-0.7955,-0.255,0.668,-0.1425,-0.525,0.117,0.049,-0.161,-0.2235,-0.593,-0.369,-0.192,-0.0435,-0.0795
-0.5645,-0.821,-0.2565,0.693,-0.154,-0.5385,0.1145,0.0475,-0.165,-0.229,-0.599,-0.375,-0.1935,-0.0435,-0.0775
-0.58,-0.8405,-0.2605,0.7105,-0.1595,-0.5505,0.112,0.0445,-0.1675,-0.2335,-0.6025,-0.378,-0.1945,-0.0455,-0.0805
-0.59,-0.846,-0.2555,0.7185,-0.1675,-0.5505,0.1125,0.0445,-0.1675,-0.2345,-0.6025,-0.379,-0.196,-0.0445,-0.08
-0.5805,-0.8435,-0.263,0.7125,-0.1585,-0.553,0.115,0.0485,-0.1655,-0.2315,-0.6005,-0.375,-0.1945,-0.051,-0.0825
-0.549,-0.82,-0.271,0.685,-0.139,-0.5455,0.122,0.058,-0.1565,-0.2235,-0.591,-0.366,-0.1935,-0.061,-0.087
-0.5205,-0.7805,-0.26,0.651,-0.1305,-0.52,0.125,0.063,-0.152,-0.2205,-0.588,-0.366,-0.1945,-0.056,-0.086
-0.5305,-0.7765,-0.246,0.6535,-0.142,-0.511,0.1235,0.0605,-0.1555,-0.225,-0.5945,-0.373,-0.197,-0.049,-0.078
-0.5355,-0.7815,-0.246,0.659,-0.145,-0.5135,0.1235,0.059,-0.157,-0.226,-0.5965,-0.3735,-0.1955,-0.0515,-0.0765
-0.5295,-0.7805,-0.251,0.6555,-0.1395,-0.5155,0.1275,0.0645,-0.153,-0.2235,-0.5945,-0.371,-0.1945,-0.049,-0.083
-0.548,-0.797,-0.249,0.673,-0.1495,-0.5225,0.1355,0.0715,-0.1475,-0.2175,-0.5905,-0.368,-0.1975,-0.0475,-0.083
-0.559,-0.816,-0.257,0.6875,-0.151,-0.536,0.1375,0.0735,-0.145,-0.2155,-0.5895,-0.366,-0.1985,-0.038,-0.0835
-0.5635,-0.8175,-0.2545,0.6905,-0.1545,-0.5355,0.1375,0.073,-0.1435,-0.2175,-0.5925,-0.3685,-0.203,-0.032,-0.0865
-0.559,-0.8065,-0.2475,0.683,-0.1555,-0.527,0.1405,0.075,-0.1425,-0.2145,-0.5935,-0.37,-0.204,-0.0395,-0.0895
-0.529,-0.7935,-0.2645,0.6615,-0.132,-0.5285,0.1435,0.078,-0.1395,-0.213,-0.592,-0.3675,-0.1995,-0.0475,-0.0895
-0.519,-0.786,-0.267,0.6525,-0.126,-0.526,0.1435,0.078,-0.138,-0.214,-0.5925,-0.368,-0.199,-0.055,-0.087
-0.5345,-0.7975,-0.263,0.6665,-0.136,-0.53,0.145,0.08,-0.1395,-0.2165,-0.596,-0.3725,-0.202,-0.052,-0.0865
-0.5365,-0.804,-0.2675,0.6705,-0.1345,-0.5355,0.149,0.0825,-0.1385,-0.217,-0.597,-0.374,-0.2045,-0.055,-0.089
-0.54,-0.808,-0.2685,0.6745,-0.136,-0.538,0.1505,0.084,-0.1375,-0.217,-0.5955,-0.374,-0.206,-0.064,-0.092
-0.5465,-0.8175,-0.271,0.682,-0.1375,-0.544,0.1505,0.0825,-0.139,-0.2215,-0.597,-0.3745,-0.2055,-0.061,-0.092
-0.548,-0.8165,-0.2685,0.683,-0.14,-0.542,0.152,0.0845,-0.138,-0.2215,-0.5985,-0.374,-0.207,-0.0565,-0.092
-0.5545,-0.818,-0.2635,0.6865,-0.1455,-0.5405,0.1555,0.087,-0.1385,-0.2225,-0.5985,-0.374,-0.2085,-0.057,-0.092
-0.5605,-0.8215,-0.2605,0.691,-0.15,-0.5405,0.1535,0.0865,-0.1405,-0.226,-0.6005,-0.3765,-0.2085,-0.0525,-0.0915
-0.558,-0.8145,-0.257,0.6865,-0.1505,-0.5355,0.152,0.088,-0.139,-0.2275,-0.601,-0.3795,-0.2115,-0.0425,-0.092
-0.5455,-0.804,-0.2585,0.675,-0.1435,-0.531,0.155,0.09,-0.1365,-0.226,-0.6,-0.378,-0.2115,-0.045,-0.0925
-0.5315,-0.7945,-0.263,0.663,-0.134,-0.5285,0.1605,0.0975,-0.13,-0.2205,-0.5965,-0.3715,-0.2075,-0.0495,-0.097
-0.5325,-0.791,-0.259,0.662,-0.137,-0.5245,0.164,0.1005,-0.1285,-0.2195,-0.596,-0.373,-0.2085,-0.041,-0.0965
-0.5505,-0.805,-0.2545,0.678,-0.148,-0.5295,0.163,0.0995,-0.132,-0.225,-0.604,-0.381,-0.2135,-0.0455,-0.093
-0.557,-0.8075,-0.2505,0.6825,-0.1535,-0.529,0.1635,0.0965,-0.1335,-0.2275,-0.609,-0.384,-0.2135,-0.049,-0.096
-0.557,-0.7955,-0.2385,0.676,-0.159,-0.517,0.1645,0.0985,-0.1335,-0.2275,-0.608,-0.385,-0.214,-0.0375,-0.0955
-0.5565,-0.7955,-0.239,0.676,-0.1585,-0.517,0.1675,0.1035,-0.13,-0.226,-0.607,-0.384,-0.214,-0.046,-0.0985
-0.5525,-0.801,-0.248,0.677,-0.152,-0.5245,0.1685,0.104,-0.1295,-0.226,-0.61,-0.3835,-0.214,-0.053,-0.1025
-0.5575,-0.8045,-0.247,0.681,-0.155,-0.5255,0.168,0.104,-0.1325,-0.228,-0.613,-0.388,-0.2175,-0.0505,-0.104
-0.562,-0.8005,-0.239,0.6815,-0.1615,-0.5195,0.168,0.104,-0.1335,-0.232,-0.619,-0.392,-0.2205,-0.048,-0.1025
-0.5625,-0.8015,-0.239,0.682,-0.162,-0.52,0.1705,0.107,-0.13,-0.233,-0.6195,-0.392,-0.221,-0.048,-0.1
-0.5625,-0.8065,-0.2445,0.6845,-0.159,-0.5255,0.1745,0.1115,-0.126,-0.2295,-0.615,-0.389,-0.2195,-0.05,-0.1045
-0.555,-0.8005,-0.2455,0.678,-0.1545,-0.5225,0.1755,0.1125,-0.1255,-0.2315,-0.62,-0.392,-0.2225,-0.041,-0.1075
-0.5415,-0.7975,-0.2565,0.6695,-0.1425,-0.527,0.174,0.11,-0.1265,-0.2365,-0.6245,-0.3965,-0.2255,-0.042,-0.1105
-0.5505,-0.8045,-0.254,0.678,-0.148,-0.529,0.1765,0.1135,-0.127,-0.2375,-0.624,-0.3955,-0.224,-0.048,-0.1115
-0.563,-0.8125,-0.2495,0.688,-0.1565,-0.531,0.183,0.1165,-0.124,-0.237,-0.6225,-0.3985,-0.2285,-0.05,-0.112
-0.5555,-0.807,-0.2515,0.6815,-0.152,-0.529,0.1855,0.119,-0.122,-0.2385,-0.6215,-0.399,-0.23,-0.0505,-0.1115
-0.5565,-0.7965,-0.24,0.677,-0.1585,-0.518,0.1875,0.1215,-0.1215,-0.2405,-0.623,-0.398,-0.2295,-0.037,-0.11
-0.552,-0.792,-0.24,0.6725,-0.156,-0.516,0.1945,0.1285,-0.115,-0.236,-0.617,-0.3935,-0.2285,-0.0395,-0.115
-0.5645,-0.8015,-0.237,0.683,-0.1635,-0.519,0.1985,0.132,-0.1125,-0.2365,-0.618,-0.394,-0.23,-0.0465,-0.1195
-0.5845,-0.81,-0.2255,0.6975,-0.1795,-0.5175,0.1975,0.129,-0.116,-0.241,-0.627,-0.403,-0.236,-0.0355,-0.118
-0.574,-0.7975,-0.2235,0.686,-0.175,-0.5105,0.2015,0.1355,-0.113,-0.238,-0.6235,-0.3995,-0.233,-0.042,-0.116
-0.58,-0.803,-0.223,0.6915,-0.1785,-0.5125,0.202,0.1355,-0.1135,-0.2415,-0.627,-0.401,-0.233,-0.047,-0.117
-0.5905,-0.8155,-0.2245,0.703,-0.183,-0.52,0.201,0.134,-0.1165,-0.2475,-0.6335,-0.4075,-0.236,-0.048,-0.118
-0.5955,-0.82,-0.2245,0.708,-0.1855,-0.522,0.204,0.137,-0.116,-0.248,-0.636,-0.411,-0.2405,-0.047,-0.1195
-0.5945,-0.8165,-0.222,0.7055,-0.186,-0.519,0.206,0.1405,-0.113,-0.247,-0.636,-0.4085,-0.2395,-0.031,-0.119
-0.5855,-0.809,-0.2235,0.6975,-0.181,-0.516,0.2085,0.142,-0.114,-0.2485,-0.6385,-0.413,-0.242,-0.0275,-0.121
-0.588,-0.8015,-0.2135,0.695,-0.1875,-0.5075,0.213,0.146,-0.113,-0.2495,-0.6405,-0.418,-0.2505,-0.0225,-0.1245
-0.584,-0.7835,-0.1995,0.684,-0.192,-0.491,0.222,0.1555,-0.103,-0.242,-0.633,-0.4075,-0.2475,-0.0235,-0.1265
-0.579,-0.7755,-0.1965,0.6775,-0.191,-0.486,0.229,0.161,-0.0985,-0.239,-0.6325,-0.4075,-0.248,-0.0355,-0.1265
-0.5805,-0.781,-0.2005,0.681,-0.19,-0.4905,0.2335,0.167,-0.0945,-0.2385,-0.633,-0.4055,-0.2485,-0.0425,-0.1285
-0.5845,-0.7875,-0.2035,0.6865,-0.1905,-0.495,0.2335,0.163,-0.097,-0.245,-0.6405,-0.412,-0.254,-0.042,-0.132
-0.5805,-0.7985,-0.218,0.69,-0.181,-0.508,0.2255,0.154,-0.107,-0.2585,-0.6535,-0.425,-0.258,-0.0375,-0.133
-0.5685,-0.8025,-0.234,0.6855,-0.167,-0.518,0.226,0.1545,-0.1085,-0.264,-0.657,-0.4265,-0.2575,-0.036,-0.1355
-0.5705,-0.8075,-0.2375,0.6895,-0.1665,-0.5225,0.228,0.1545,-0.1105,-0.268,-0.66,-0.4325,-0.26,-0.028,-0.138
-0.5765,-0.8175,-0.2405,0.6975,-0.168,-0.5285,0.2305,0.157,-0.111,-0.272,-0.663,-0.4325,-0.2595,-0.0295,-0.1395
-0.5675,-0.797,-0.23,0.6825,-0.1685,-0.5135,0.235,0.16,-0.1095,-0.2725,-0.662,-0.4305,-0.259,-0.0295,-0.139
-0.566,-0.781,-0.215,0.6735,-0.1755,-0.498,0.236,0.1615,-0.1105,-0.2755,-0.6675,-0.4365,-0.26,-0.021,-0.1385
-0.578,-0.791,-0.213,0.6845,-0.1825,-0.5015,0.2405,0.165,-0.107,-0.278,-0.668,-0.4375,-0.264,-0.021,-0.141
-0.595,-0.8065,-0.2115,0.701,-0.192,-0.5085,0.241,0.164,-0.11,-0.2825,-0.6705,-0.438,-0.267,-0.018,-0.142
-0.6015,-0.809,-0.2075,0.7055,-0.197,-0.508,0.243,0.1655,-0.1115,-0.2865,-0.6775,-0.444,-0.2705,-0.014,-0.141
-0.608,-0.8125,-0.2045,0.7105,-0.202,-0.5085,0.249,0.17,-0.1075,-0.2855,-0.679,-0.4485,-0.274,-0.0175,-0.145
-0.618,-0.811,-0.193,0.715,-0.2125,-0.5015,0.2515,0.1705,-0.1095,-0.288,-0.6845,-0.4505,-0.278,-0.0155,-0.1475
-0.604,-0.7905,-0.187,0.6975,-0.2085,-0.4885,0.261,0.1775,-0.1045,-0.285,-0.6835,-0.4475,-0.2795,-0.0095,-0.149
-0.5985,-0.7925,-0.194,0.696,-0.2025,-0.493,0.2685,0.1835,-0.0995,-0.2825,-0.6825,-0.446,-0.278,-0.0165,-0.1505
-0.601,-0.7955,-0.1945,0.6985,-0.203,-0.495,0.273,0.1865,-0.098,-0.284,-0.685,-0.4475,-0.2795,-0.0175,-0.151
-0.6155,-0.7975,-0.1815,0.7065,-0.217,-0.4895,0.278,0.187,-0.098,-0.2865,-0.689,-0.45,-0.2835,-0.014,-0.1535
-0.6135,-0.7905,-0.177,0.702,-0.218,-0.4835,0.279,0.186,-0.101,-0.2935,-0.696,-0.4545,-0.2865,-0.011,-0.156
-0.5885,-0.7675,-0.179,0.678,-0.205,-0.473,0.2875,0.195,-0.095,-0.289,-0.6935,-0.4515,-0.2875,-0.008,-0.1605
-0.587,-0.762,-0.175,0.675,-0.206,-0.4685,0.2945,0.199,-0.0925,-0.289,-0.6945,-0.454,-0.294,-0.006,-0.161
-0.5885,-0.7585,-0.17,0.674,-0.209,-0.464,0.293,0.1965,-0.097,-0.2975,-0.7005,-0.461,-0.298,0.004,-0.161
-0.5915,-0.764,-0.173,0.678,-0.2095,-0.468,0.292,0.193,-0.1015,-0.3045,-0.708,-0.466,-0.2995,0.0095,-0.159
-0.5865,-0.7685,-0.1825,0.678,-0.202,-0.4755,0.2945,0.1925,-0.104,-0.3115,-0.716,-0.4715,-0.305,0.0065,-0.16
-0.5745,-0.7595,-0.1845,0.667,-0.195,-0.4715,0.3065,0.2015,-0.096,-0.307,-0.7085,-0.4655,-0.306,0.0045,-0.164
-0.5795,-0.7635,-0.184,0.672,-0.1975,-0.4735,0.3135,0.206,-0.095,-0.3085,-0.707,-0.4625,-0.308,0.0125,-0.163
-0.586,-0.7645,-0.1785,0.6755,-0.204,-0.471,0.313,0.204,-0.1005,-0.3165,-0.7135,-0.4675,-0.3105,0.0155,-0.164
-0.5885,-0.7505,-0.162,0.6695,-0.213,-0.456,0.312,0.1995,-0.104,-0.325,-0.72,-0.471,-0.312,0.0215,-0.165
-0.5945,-0.734,-0.14,0.6645,-0.227,-0.437,0.308,0.194,-0.1105,-0.3355,-0.7305,-0.4795,-0.3145,0.0365,-0.1635
-0.597,-0.7315,-0.1345,0.6645,-0.2315,-0.4325,0.307,0.193,-0.114,-0.342,-0.737,-0.4835,-0.3145,0.0455,-0.163
-0.605,-0.735,-0.1305,0.6705,-0.2375,-0.4325,0.309,0.191,-0.119,-0.3495,-0.7415,-0.486,-0.318,0.047,-0.165
-0.6125,-0.733,-0.121,0.673,-0.2455,-0.4265,0.311,0.189,-0.122,-0.353,-0.7435,-0.489,-0.322,0.049,-0.165
-0.6035,-0.734,-0.1305,0.669,-0.2365,-0.432,0.3145,0.193,-0.12,-0.355,-0.7435,-0.4865,-0.3245,0.0445,-0.1635
-0.6035,-0.7355,-0.1325,0.67,-0.2355,-0.434,0.3175,0.1935,-0.122,-0.3605,-0.751,-0.491,-0.329,0.0335,-0.1645
-0.6155,-0.7295,-0.114,0.673,-0.251,-0.4215,0.3175,0.192,-0.1275,-0.367,-0.7575,-0.496,-0.332,0.04,-0.1635
-0.613,-0.716,-0.103,0.6645,-0.255,-0.409,0.318,0.1915,-0.13,-0.3715,-0.759,-0.4965,-0.334,0.0475,-0.162
-0.607,-0.713,-0.1065,0.66,-0.2505,-0.4095,0.32,0.1895,-0.131,-0.376,-0.764,-0.498,-0.336,0.0525,-0.1625
-0.6025,-0.7065,-0.104,0.655,-0.249,-0.405,0.324,0.191,-0.1315,-0.3785,-0.767,-0.499,-0.342,0.06,-0.1645
-0.599,-0.694,-0.095,0.6465,-0.252,-0.394,0.3305,0.195,-0.1305,-0.3785,-0.7675,-0.496,-0.346,0.0675,-0.166
-0.6035,-0.691,-0.0875,0.6475,-0.258,-0.389,0.3345,0.1965,-0.1325,-0.384,-0.772,-0.499,-0.352,0.067,-0.1655
-0.6065,-0.6925,-0.0865,0.6495,-0.26,-0.3895,0.3355,0.194,-0.135,-0.3895,-0.7765,-0.5025,-0.354,0.063,-0.1655
-0.6055,-0.696,-0.0905,0.6505,-0.2575,-0.393,0.335,0.192,-0.1395,-0.395,-0.7795,-0.5015,-0.3525,0.069,-0.1665
-0.615,-0.6945,-0.079,0.655,-0.268,-0.3865,0.3315,0.186,-0.148,-0.407,-0.791,-0.5105,-0.3575,0.0805,-0.163
-0.633,-0.7035,-0.071,0.6685,-0.281,-0.387,0.3245,0.1755,-0.158,-0.421,-0.8035,-0.5235,-0.3615,0.0865,-0.1595
-0.6275,-0.701,-0.0735,0.6645,-0.277,-0.387,0.329,0.176,-0.1585,-0.4245,-0.804,-0.5205,-0.364,0.0855,-0.1625
-0.636,-0.6995,-0.0635,0.668,-0.2865,-0.381,0.328,0.1745,-0.1625,-0.43,-0.807,-0.5205,-0.3675,0.094,-0.1615
-0.6525,-0.709,-0.0565,0.681,-0.298,-0.3825,0.324,0.1675,-0.17,-0.4415,-0.816,-0.528,-0.37,0.096,-0.157
-0.6305,-0.69,-0.0595,0.6605,-0.2855,-0.3745,0.3325,0.1725,-0.1675,-0.44,-0.8125,-0.521,-0.37,0.0935,-0.1575
-0.6045,-0.666,-0.0615,0.6355,-0.2715,-0.3635,0.3355,0.175,-0.167,-0.4405,-0.8095,-0.5165,-0.3705,0.0965,-0.158
-0.6135,-0.6705,-0.057,0.6425,-0.2785,-0.3635,0.33,0.169,-0.175,-0.452,-0.8185,-0.5235,-0.3745,0.102,-0.1515
-0.627,-0.6775,-0.051,0.6525,-0.2875,-0.364,0.327,0.165,-0.179,-0.4595,-0.8245,-0.5265,-0.3805,0.116,-0.148
-0.6225,-0.6655,-0.0435,0.644,-0.2895,-0.3545,0.329,0.163,-0.1815,-0.463,-0.8255,-0.526,-0.3845,0.1215,-0.1475
-0.6145,-0.6505,-0.036,0.633,-0.2895,-0.343,0.3335,0.1645,-0.182,-0.463,-0.824,-0.5225,-0.3845,0.1185,-0.1485
-0.6115,-0.6435,-0.0315,0.6275,-0.29,-0.3375,0.33,0.1615,-0.1865,-0.4695,-0.8265,-0.5245,-0.3835,0.1205,-0.149
-0.6215,-0.645,-0.0235,0.6335,-0.299,-0.334,0.3195,0.1485,-0.201,-0.484,-0.841,-0.536,-0.385,0.124,-0.145
-0.617,-0.636,-0.0195,0.627,-0.299,-0.3275,0.32,0.144,-0.2055,-0.4895,-0.8475,-0.5395,-0.389,0.128,-0.1425
-0.607,-0.622,-0.015,0.615,-0.296,-0.3185,0.319,0.1425,-0.2085,-0.4935,-0.848,-0.5385,-0.389,0.1345,-0.139
-0.605,-0.6135,-0.0085,0.6095,-0.298,-0.311,0.3175,0.1405,-0.211,-0.497,-0.8495,-0.539,-0.3925,0.136,-0.1385
-0.6115,-0.631,-0.019,0.6215,-0.2965,-0.3245,0.317,0.138,-0.2135,-0.5,-0.8505,-0.5375,-0.393,0.1305,-0.138
-0.63,-0.652,-0.0215,0.6415,-0.304,-0.3365,0.3125,0.132,-0.2205,-0.5075,-0.8565,-0.54,-0.3935,0.1295,-0.1375
-0.619,-0.623,-0.004,0.621,-0.3075,-0.313,0.317,0.1315,-0.2215,-0.5095,-0.856,-0.5375,-0.3975,0.1485,-0.134
-0.5945,-0.596,-0.001,0.5955,-0.297,-0.2985,0.3145,0.13,-0.2245,-0.5135,-0.8565,-0.535,-0.394,0.155,-0.1295
-0.5995,-0.599,0.0005,0.5995,-0.3,-0.299,0.3075,0.122,-0.233,-0.523,-0.8655,-0.542,-0.3955,0.146,-0.1305
-0.604,-0.602,0.0015,0.6035,-0.303,-0.3,0.3055,0.118,-0.2365,-0.527,-0.8685,-0.541,-0.396,0.1465,-0.128
-0.6125,-0.6115,0.001,0.612,-0.307,-0.305,0.307,0.119,-0.2355,-0.5265,-0.8645,-0.535,-0.396,0.1415,-0.1255
-0.634,-0.621,0.013,0.628,-0.3235,-0.3035,0.305,0.1145,-0.2425,-0.5355,-0.8715,-0.539,-0.4015,0.1475,-0.122
-0.635,-0.6165,0.0185,0.626,-0.3265,-0.2985,0.2965,0.104,-0.251,-0.545,-0.8765,-0.5425,-0.4015,0.1615,-0.118
-0.6185,-0.611,0.0075,0.615,-0.313,-0.3015,0.29,0.0995,-0.255,-0.5475,-0.873,-0.541,-0.3975,0.167,-0.114
-0.606,-0.607,-0.0015,0.607,-0.3025,-0.304,0.2855,0.0945,-0.2585,-0.5515,-0.876,-0.5415,-0.3945,0.168,-0.109
-0.6015,-0.5975,0.004,0.5995,-0.303,-0.2965,0.2805,0.0895,-0.264,-0.5585,-0.8785,-0.5425,-0.3965,0.175,-0.1055
-0.6,-0.592,0.008,0.596,-0.3035,-0.292,0.275,0.087,-0.268,-0.562,-0.8795,-0.54,-0.3955,0.184,-0.1005
-0.6085,-0.594,0.0145,0.6015,-0.3115,-0.2895,0.268,0.079,-0.2735,-0.5665,-0.8805,-0.538,-0.39,0.188,-0.096
-0.6125,-0.5945,0.018,0.604,-0.3155,-0.288,0.2625,0.0735,-0.279,-0.569,-0.882,-0.5365,-0.388,0.193,-0.094
-0.617,-0.5955,0.021,0.6065,-0.319,-0.287,0.2565,0.069,-0.2825,-0.5715,-0.883,-0.5365,-0.3865,0.191,-0.0905
-0.627,-0.596,0.031,0.612,-0.329,-0.282,0.247,0.0605,-0.2895,-0.5785,-0.8885,-0.5405,-0.387,0.194,-0.0835
-0.631,-0.5915,0.04,0.6115,-0.3355,-0.2755,0.2415,0.0555,-0.294,-0.579,-0.89,-0.538,-0.387,0.196,-0.08
-0.629,-0.585,0.0445,0.607,-0.3365,-0.27,0.2355,0.0515,-0.295,-0.578,-0.8865,-0.5335,-0.3865,0.197,-0.0775
-0.624,-0.581,0.043,0.6025,-0.3335,-0.2685,0.2295,0.045,-0.299,-0.579,-0.8855,-0.53,-0.3865,0.2015,-0.073
-0.616,-0.581,0.035,0.5985,-0.3255,-0.2725,0.2215,0.0385,-0.3035,-0.5795,-0.8865,-0.5305,-0.3825,0.1985,-0.071
-0.6055,-0.5815,0.024,0.5935,-0.315,-0.2785,0.2145,0.035,-0.305,-0.5795,-0.8845,-0.527,-0.3745,0.191,-0.0665
-0.605,-0.5775,0.0275,0.5915,-0.3165,-0.2745,0.206,0.031,-0.3085,-0.579,-0.881,-0.5205,-0.3675,0.191,-0.064
-0.5945,-0.5665,0.0275,0.5805,-0.311,-0.269,0.1985,0.0285,-0.3085,-0.576,-0.876,-0.5145,-0.365,0.2045,-0.0575
-0.5845,-0.555,0.029,0.57,-0.3065,-0.2625,0.1975,0.0265,-0.3065,-0.5735,-0.869,-0.508,-0.3635,0.214,-0.049
-0.589,-0.551,0.038,0.5705,-0.3135,-0.2565,0.1865,0.0205,-0.3105,-0.574,-0.867,-0.5075,-0.359,0.227,-0.0485
-0.5915,-0.5525,0.0395,0.572,-0.3155,-0.2565,0.1755,0.011,-0.317,-0.575,-0.866,-0.5045,-0.359,0.2265,-0.0435
-0.583,-0.548,0.0345,0.5655,-0.3085,-0.2565,0.1695,0.008,-0.317,-0.574,-0.861,-0.4995,-0.3535,0.2165,-0.043
-0.5835,-0.5495,0.034,0.567,-0.3085,-0.258,0.161,0.008,-0.315,-0.571,-0.8545,-0.4945,-0.342,0.2205,-0.046
-0.589,-0.555,0.034,0.572,-0.3115,-0.26,0.154,-0.001,-0.3205,-0.5705,-0.849,-0.488,-0.3375,0.217,-0.038
-0.57,-0.5465,0.0235,0.5585,-0.297,-0.261,0.1505,-0.002,-0.3165,-0.5635,-0.84,-0.479,-0.332,0.214,-0.029
-0.5545,-0.541,0.0135,0.548,-0.284,-0.2635,0.146,0.0,-0.3115,-0.554,-0.83,-0.4715,-0.328,0.211,-0.0215
-0.547,-0.5515,-0.004,0.5495,-0.2715,-0.2775,0.1425,0.0,-0.3075,-0.5475,-0.8205,-0.464,-0.321,0.2,-0.019
-0.5515,-0.5595,-0.008,0.556,-0.272,-0.2835,0.136,-0.003,-0.3045,-0.541,-0.8135,-0.46,-0.3155,0.1975,-0.0165
-0.5555,-0.565,-0.0095,0.5605,-0.273,-0.287,0.1265,-0.008,-0.3065,-0.537,-0.811,-0.456,-0.3085,0.202,-0.012
-0.551,-0.569,-0.018,0.5605,-0.2665,-0.2935,0.119,-0.0105,-0.3065,-0.53,-0.8045,-0.451,-0.301,0.203,-0.0085
-0.553,-0.5675,-0.0145,0.561,-0.2695,-0.291,0.1085,-0.0175,-0.3085,-0.5255,-0.801,-0.4505,-0.298,0.1995,-0.004
-0.554,-0.5685,-0.015,0.5615,-0.2695,-0.2915,0.101,-0.0225,-0.307,-0.5195,-0.795,-0.445,-0.2905,0.1935,-0.0045
-0.5485,-0.5605,-0.0115,0.555,-0.2685,-0.286,0.0985,-0.021,-0.3015,-0.507,-0.7845,-0.436,-0.281,0.199,-0.003
-0.5455,-0.556,-0.0105,0.551,-0.2675,-0.283,0.094,-0.0195,-0.296,-0.4945,-0.776,-0.4285,-0.274,0.1995,0.0
-0.543,-0.5575,-0.0145,0.5505,-0.2645,-0.2855,0.0885,-0.0215,-0.2925,-0.486,-0.7645,-0.42,-0.2665,0.183,-0.0005
-0.529,-0.5625,-0.034,0.546,-0.2475,-0.298,0.0835,-0.0235,-0.2925,-0.479,-0.76,-0.416,-0.2595,0.166,-0.002
-0.5155,-0.572,-0.0565,0.544,-0.2295,-0.314,0.076,-0.0265,-0.2895,-0.4725,-0.7555,-0.416,-0.254,0.155,0.001
-0.5205,-0.588,-0.0675,0.5545,-0.2265,-0.3275,0.0665,-0.0295,-0.2875,-0.463,-0.747,-0.4105,-0.2445,0.1425,0.0025
-0.522,-0.5955,-0.0735,0.559,-0.2245,-0.334,0.062,-0.0285,-0.283,-0.452,-0.736,-0.4005,-0.2355,0.1375,-0.0015
-0.512,-0.586,-0.074,0.5495,-0.2195,-0.3295,0.058,-0.0295,-0.2795,-0.4435,-0.7275,-0.3965,-0.231,0.1425,0.0005
-0.502,-0.5855,-0.0835,0.544,-0.209,-0.334,0.0585,-0.027,-0.273,-0.429,-0.714,-0.3865,-0.2235,0.1355,0.0005
-0.4945,-0.5825,-0.088,0.5385,-0.2035,-0.335,0.056,-0.023,-0.265,-0.4145,-0.698,-0.3745,-0.215,0.136,0.0015
-0.488,-0.591,-0.103,0.5395,-0.1925,-0.347,0.0495,-0.0255,-0.2615,-0.405,-0.6895,-0.369,-0.208,0.142,0.003
-0.4845,-0.6105,-0.1265,0.548,-0.179,-0.3685,0.0405,-0.0315,-0.264,-0.4015,-0.6815,-0.364,-0.197,0.1405,0.004
-0.489,-0.6225,-0.1335,0.556,-0.1775,-0.378,0.031,-0.036,-0.2645,-0.3955,-0.675,-0.361,-0.1875,0.1425,0.007
-0.4885,-0.6155,-0.127,0.5525,-0.181,-0.371,0.0285,-0.0355,-0.257,-0.381,-0.6635,-0.3535,-0.181,0.144,0.006
-0.4915,-0.6085,-0.117,0.55,-0.1875,-0.3625,0.0225,-0.0355,-0.2535,-0.3695,-0.6525,-0.3465,-0.171,0.1445,0.0105
-0.5065,-0.6265,-0.12,0.5665,-0.193,-0.373,0.02,-0.036,-0.249,-0.36,-0.643,-0.3385,-0.163,0.132,0.0085
-0.5055,-0.626,-0.12,0.566,-0.193,-0.373,0.0185,-0.033,-0.243,-0.345,-0.631,-0.33,-0.1565,0.1165,0.0065
-0.491,-0.6165,-0.125,0.554,-0.183,-0.3705,0.0125,-0.034,-0.238,-0.3335,-0.6215,-0.3215,-0.1455,0.112,0.009
-0.494,-0.624,-0.13,0.559,-0.182,-0.377,0.009,-0.036,-0.2355,-0.3255,-0.614,-0.3165,-0.1395,0.105,0.0075
-0.4825,-0.6215,-0.1385,0.552,-0.172,-0.3795,0.0065,-0.0355,-0.2325,-0.314,-0.606,-0.3135,-0.1375,0.1005,0.0095
-0.463,-0.622,-0.159,0.5425,-0.152,-0.39,0.001,-0.037,-0.2295,-0.3035,-0.597,-0.3055,-0.13,0.1,0.009
-0.4575,-0.623,-0.1655,0.5405,-0.146,-0.394,-0.005,-0.0385,-0.2275,-0.294,-0.589,-0.299,-0.1245,0.102,0.0085
-0.4515,-0.615,-0.1635,0.5335,-0.144,-0.389,-0.0075,-0.0405,-0.224,-0.285,-0.5795,-0.2945,-0.122,0.1035,0.0065
-0.453,-0.621,-0.168,0.537,-0.1425,-0.394,-0.005,-0.0355,-0.2155,-0.27,-0.565,-0.2835,-0.1145,0.091,0.005
-0.453,-0.6235,-0.1705,0.5385,-0.1415,-0.3965,-0.004,-0.0295,-0.206,-0.254,-0.55,-0.2715,-0.1055,0.0845,0.005
-0.4465,-0.622,-0.1755,0.5345,-0.1355,-0.3985,-0.006,-0.0275,-0.201,-0.2435,-0.5385,-0.2625,-0.1,0.089,0.004
-0.4335,-0.6145,-0.1805,0.5245,-0.1265,-0.3975,-0.0065,-0.0275,-0.199,-0.2355,-0.529,-0.2585,-0.0955,0.0925,0.004
-0.4315,-0.6125,-0.181,0.5225,-0.1255,-0.3965,-0.009,-0.0275,-0.195,-0.2265,-0.5225,-0.2525,-0.087,0.0935,0.002
-0.438,-0.624,-0.1865,0.531,-0.1255,-0.405,-0.0155,-0.0335,-0.1965,-0.226,-0.52,-0.251,-0.0805,0.091,0.001
-0.432,-0.611,-0.1795,0.5215,-0.126,-0.395,-0.024,-0.0435,-0.2025,-0.228,-0.5205,-0.2545,-0.0775,0.0955,0.0005
-0.4305,-0.6095,-0.1785,0.52,-0.126,-0.3935,-0.0295,-0.047,-0.2035,-0.222,-0.5155,-0.25,-0.073,0.0995,0.0005
-0.4375,-0.628,-0.1905,0.533,-0.1235,-0.409,-0.0315,-0.049,-0.203,-0.218,-0.51,-0.248,-0.0705,0.0945,0.0
-0.4445,-0.652,-0.2075,0.5485,-0.1185,-0.4295,-0.0315,-0.0475,-0.198,-0.2115,-0.501,-0.241,-0.0665,0.0815,0.0
-0.4475,-0.6695,-0.222,0.5585,-0.1125,-0.4455,-0.0305,-0.0445,-0.192,-0.201,-0.4885,-0.2315,-0.062,0.0665,-0.0025
-0.4315,-0.6525,-0.221,0.5425,-0.1055,-0.4365,-0.0305,-0.043,-0.1875,-0.191,-0.481,-0.226,-0.056,0.0645,-0.0025
-0.427,-0.6425,-0.2155,0.535,-0.106,-0.4285,-0.0335,-0.046,-0.1885,-0.1875,-0.4775,-0.223,-0.052,0.0665,-0.001
-0.4355,-0.6475,-0.212,0.542,-0.1115,-0.4295,-0.037,-0.049,-0.19,-0.1865,-0.4765,-0.224,-0.0515,0.071,-0.002
-0.4315,-0.648,-0.2165,0.54,-0.1075,-0.432,-0.0375,-0.0495,-0.189,-0.182,-0.4725,-0.2205,-0.047,0.0785,0.001
-0.428,-0.6505,-0.2225,0.5395,-0.103,-0.436,-0.04,-0.0505,-0.187,-0.1765,-0.4665,-0.2155,-0.0415,0.0695,0.001
-0.428,-0.653,-0.225,0.541,-0.1015,-0.4385,-0.0385,-0.0475,-0.1835,-0.169,-0.461,-0.211,-0.0395,0.051,-0.0005
-0.4235,-0.6505,-0.2265,0.5375,-0.0985,-0.4385,-0.035,-0.044,-0.1785,-0.159,-0.4555,-0.2055,-0.037,0.045,0.001
-0.423,-0.654,-0.231,0.539,-0.096,-0.4425,-0.0395,-0.046,-0.1785,-0.156,-0.4535,-0.2025,-0.033,0.046,0.0
-0.433,-0.655,-0.222,0.5445,-0.1055,-0.4385,-0.0475,-0.0535,-0.185,-0.161,-0.4565,-0.207,-0.032,0.05,-0.0015
-0.42,-0.63,-0.2105,0.525,-0.105,-0.42,-0.046,-0.052,-0.181,-0.1535,-0.4505,-0.2045,-0.0305,0.0575,-0.0015
-0.409,-0.623,-0.214,0.516,-0.098,-0.418,-0.0465,-0.0535,-0.181,-0.15,-0.4465,-0.202,-0.0295,0.0665,-0.003
-0.419,-0.6315,-0.2125,0.5255,-0.1035,-0.4215,-0.0525,-0.057,-0.184,-0.151,-0.447,-0.204,-0.028,0.071,-0.002
-0.4225,-0.6345,-0.2115,0.5285,-0.1055,-0.423,-0.0525,-0.058,-0.1825,-0.1495,-0.4445,-0.206,-0.0305,0.069,0.001
-0.4295,-0.643,-0.2135,0.5365,-0.108,-0.428,-0.053,-0.061,-0.1845,-0.1495,-0.4465,-0.209,-0.031,0.0615,0.0015
-0.405,-0.618,-0.213,0.5115,-0.096,-0.415,-0.039,-0.0465,-0.168,-0.133,-0.429,-0.191,-0.0245,0.053,-0.001
-0.412,-0.628,-0.216,0.52,-0.098,-0.4215,-0.04,-0.049,-0.1695,-0.134,-0.4275,-0.192,-0.0255,0.0575,-0.0035
-0.432,-0.648,-0.216,0.5405,-0.108,-0.432,-0.0505,-0.061,-0.1805,-0.144,-0.4375,-0.201,-0.0285,0.0665,-0.0015
-0.421,-0.64,-0.219,0.531,-0.101,-0.429,-0.048,-0.057,-0.1755,-0.139,-0.4295,-0.1925,-0.026,0.069,-0.0005
-0.429,-0.6525,-0.223,0.541,-0.103,-0.4375,-0.0525,-0.061,-0.1795,-0.139,-0.4285,-0.1935,-0.0235,0.0715,0.0
-0.425,-0.6565,-0.2315,0.541,-0.097,-0.4435,-0.0495,-0.06,-0.1755,-0.136,-0.4255,-0.1915,-0.024,0.07,-0.0005
-0.425,-0.658,-0.233,0.542,-0.096,-0.4455,-0.0475,-0.058,-0.174,-0.132,-0.423,-0.189,-0.0215,0.06,0.0
-0.428,-0.6545,-0.226,0.5415,-0.101,-0.44,-0.047,-0.0575,-0.1735,-0.1315,-0.4215,-0.1885,-0.022,0.054,0.0
-0.4255,-0.6455,-0.2205,0.536,-0.1025,-0.4325,-0.05,-0.061,-0.1765,-0.1345,-0.4245,-0.1935,-0.023,0.059,0.0005
-0.419,-0.6255,-0.206,0.5225,-0.1065,-0.416,-0.055,-0.0645,-0.182,-0.135,-0.428,-0.194,-0.0195,0.0675,0.0025
-0.413,-0.6205,-0.207,0.517,-0.103,-0.4135,-0.051,-0.0605,-0.1755,-0.129,-0.4205,-0.1865,-0.0165,0.065,0.0045
-0.4185,-0.6365,-0.2185,0.5275,-0.1,-0.427,-0.048,-0.058,-0.173,-0.1245,-0.417,-0.184,-0.015,0.061,0.0025
-0.4245,-0.646,-0.222,0.5355,-0.1015,-0.434,-0.0485,-0.058,-0.173,-0.1215,-0.4155,-0.1835,-0.018,0.063,-0.0015
-0.4315,-0.644,-0.2125,0.538,-0.1095,-0.428,-0.0525,-0.0625,-0.178,-0.1225,-0.4195,-0.187,-0.0205,0.0635,0.0005
-0.431,-0.6355,-0.205,0.5335,-0.113,-0.42,-0.0555,-0.067,-0.183,-0.1275,-0.422,-0.189,-0.0175,0.0585,0.003
-0.423,-0.639,-0.2155,0.5315,-0.104,-0.427,-0.06,-0.0705,-0.185,-0.13,-0.423,-0.1915,-0.0155,0.048,0.002
-0.4235,-0.643,-0.22,0.5335,-0.102,-0.431,-0.0605,-0.0705,-0.184,-0.129,-0.4225,-0.1915,-0.015,0.0455,0.0035
-0.41,-0.6315,-0.2215,0.521,-0.0945,-0.426,-0.0505,-0.0615,-0.1755,-0.1205,-0.412,-0.183,-0.0145,0.0465,0.0035
-0.4085,-0.637,-0.2285,0.523,-0.09,-0.4325,-0.047,-0.0585,-0.173,-0.1185,-0.4075,-0.179,-0.015,0.041,0.0015
-0.421,-0.652,-0.2305,0.5365,-0.095,-0.441,-0.0465,-0.0585,-0.174,-0.1175,-0.4085,-0.1785,-0.0145,0.042,0.0025
-0.421,-0.646,-0.225,0.534,-0.098,-0.4355,-0.047,-0.0575,-0.1755,-0.118,-0.4075,-0.1775,-0.0145,0.0545,0.0005
-0.42,-0.6325,-0.2125,0.5265,-0.104,-0.422,-0.0545,-0.065,-0.182,-0.1255,-0.4125,-0.1865,-0.017,0.065,0.0015
-0.4065,-0.629,-0.2225,0.518,-0.092,-0.4255,-0.0555,-0.0685,-0.185,-0.1285,-0.415,-0.1885,-0.017,0.0635,0.005
-0.403,-0.6465,-0.2435,0.525,-0.0795,-0.445,-0.0545,-0.0675,-0.184,-0.1275,-0.412,-0.1825,-0.0145,0.057,0.003
-0.4165,-0.663,-0.246,0.54,-0.085,-0.4545,-0.054,-0.0685,-0.1855,-0.129,-0.4115,-0.1845,-0.016,0.0505,0.003
-0.432,-0.68,-0.2475,0.5565,-0.092,-0.4635,-0.058,-0.072,-0.188,-0.133,-0.4125,-0.1865,-0.0155,0.0485,0.004
-0.4345,-0.686,-0.251,0.5605,-0.092,-0.468,-0.0595,-0.0745,-0.1885,-0.133,-0.4115,-0.186,-0.014,0.053,0.005
-0.4315,-0.6785,-0.247,0.5555,-0.0925,-0.463,-0.06,-0.077,-0.191,-0.137,-0.4145,-0.1885,-0.0155,0.054,0.0045
-0.4315,-0.6645,-0.2335,0.5485,-0.099,-0.449,-0.0635,-0.0805,-0.194,-0.1395,-0.4175,-0.1915,-0.014,0.058,0.0045
-0.427,-0.6545,-0.2275,0.541,-0.0995,-0.4405,-0.061,-0.08,-0.194,-0.138,-0.416,-0.191,-0.0145,0.0485,0.005
-0.44,-0.677,-0.237,0.5585,-0.1015,-0.4565,-0.0625,-0.081,-0.196,-0.139,-0.417,-0.1915,-0.014,0.0385,0.006
-0.4565,-0.693,-0.2365,0.575,-0.11,-0.464,-0.0675,-0.0855,-0.2005,-0.1395,-0.42,-0.1965,-0.0115,0.048,0.007
-0.456,-0.681,-0.225,0.5685,-0.1155,-0.4525,-0.0665,-0.0855,-0.2,-0.139,-0.418,-0.194,-0.009,0.0595,0.006
-0.438,-0.668,-0.23,0.5535,-0.104,-0.449,-0.0645,-0.0825,-0.198,-0.137,-0.4175,-0.1925,-0.0125,0.055,0.0055
-0.4285,-0.6675,-0.239,0.5485,-0.0945,-0.453,-0.064,-0.082,-0.198,-0.1345,-0.416,-0.192,-0.014,0.043,0.005
-0.421,-0.6555,-0.2345,0.5385,-0.093,-0.4445,-0.06,-0.078,-0.194,-0.13,-0.409,-0.187,-0.0145,0.0455,0.0025
-0.406,-0.6335,-0.2275,0.52,-0.089,-0.4305,-0.0575,-0.076,-0.1915,-0.1275,-0.4065,-0.187,-0.0155,0.052,0.0035
-0.4035,-0.631,-0.227,0.518,-0.088,-0.429,-0.0585,-0.0765,-0.19,-0.1255,-0.4045,-0.182,-0.012,0.0535,0.007
-0.414,-0.637,-0.223,0.5255,-0.095,-0.43,-0.0595,-0.0785,-0.193,-0.1285,-0.4055,-0.184,-0.0145,0.057,0.0065
-0.422,-0.643,-0.2215,0.533,-0.1005,-0.432,-0.061,-0.083,-0.1955,-0.132,-0.409,-0.1875,-0.0135,0.0555,0.006
-0.4285,-0.6485,-0.2195,0.539,-0.1045,-0.4335,-0.061,-0.082,-0.195,-0.133,-0.4075,-0.185,-0.0115,0.053,0.0045
-0.4345,-0.649,-0.2145,0.542,-0.11,-0.4315,-0.059,-0.0795,-0.1945,-0.132,-0.406,-0.1845,-0.012,0.052,0.0045
-0.429,-0.657,-0.228,0.543,-0.1005,-0.4425,-0.056,-0.076,-0.1905,-0.127,-0.402,-0.1785,-0.008,0.041,0.001
-0.42,-0.6605,-0.2405,0.5405,-0.09,-0.4505,-0.0565,-0.0755,-0.19,-0.127,-0.4015,-0.18,-0.0085,0.0405,0.002
-0.419,-0.663,-0.2445,0.5415,-0.087,-0.4535,-0.0605,-0.079,-0.195,-0.1325,-0.4065,-0.1865,-0.011,0.0445,0.0075
-0.427,-0.677,-0.25,0.5525,-0.0885,-0.4635,-0.067,-0.088,-0.2045,-0.1405,-0.4145,-0.192,-0.0105,0.047,0.0075
-0.429,-0.678,-0.249,0.554,-0.09,-0.463,-0.069,-0.092,-0.206,-0.143,-0.419,-0.1965,-0.0125,0.0535,0.0075
-0.417,-0.6685,-0.252,0.543,-0.0825,-0.46,-0.0675,-0.0885,-0.203,-0.1405,-0.416,-0.196,-0.0135,0.0535,0.008
-0.4145,-0.671,-0.257,0.543,-0.0785,-0.464,-0.064,-0.0855,-0.201,-0.137,-0.414,-0.194,-0.0125,0.047,0.0115
-0.433,-0.68,-0.247,0.5565,-0.093,-0.4635,-0.0645,-0.0845,-0.201,-0.137,-0.416,-0.1945,-0.0135,0.044,0.01
-0.4435,-0.6805,-0.237,0.5625,-0.103,-0.459,-0.066,-0.0885,-0.204,-0.1395,-0.4175,-0.195,-0.0135,0.045,0.0095
-0.4395,-0.681,-0.2415,0.5605,-0.099,-0.461,-0.064,-0.0875,-0.202,-0.137,-0.4165,-0.1945,-0.016,0.0505,0.009
-0.4405,-0.6795,-0.239,0.56,-0.1005,-0.459,-0.0635,-0.0855,-0.2,-0.136,-0.416,-0.1955,-0.018,0.0555,0.0075
-0.4465,-0.6815,-0.235,0.564,-0.1055,-0.458,-0.064,-0.0865,-0.202,-0.136,-0.419,-0.1955,-0.0185,0.0415,0.0065
-0.448,-0.6895,-0.2415,0.569,-0.1035,-0.465,-0.065,-0.087,-0.2045,-0.137,-0.421,-0.196,-0.0175,0.026,0.002
-0.443,-0.6865,-0.243,0.5645,-0.1,-0.4645,-0.066,-0.087,-0.2035,-0.1385,-0.422,-0.198,-0.0165,0.0285,0.0035
-0.434,-0.669,-0.2345,0.552,-0.0995,-0.4515,-0.0645,-0.084,-0.2,-0.136,-0.4185,-0.196,-0.018,0.034,0.0055
-0.434,-0.6665,-0.233,0.5505,-0.1005,-0.4495,-0.059,-0.08,-0.197,-0.131,-0.4135,-0.191,-0.016,0.038,0.0065
-0.4375,-0.673,-0.236,0.5555,-0.101,-0.454,-0.0595,-0.0795,-0.1975,-0.1315,-0.4145,-0.192,-0.016,0.0465,0.0075
-0.438,-0.667,-0.229,0.5525,-0.1045,-0.4475,-0.0585,-0.0775,-0.195,-0.131,-0.4105,-0.189,-0.016,0.0455,0.004
-0.4335,-0.6615,-0.228,0.5475,-0.1025,-0.4445,-0.0545,-0.074,-0.1905,-0.1265,-0.4045,-0.1855,-0.015,0.0455,0.003
-0.4275,-0.662,-0.2345,0.545,-0.0965,-0.448,-0.058,-0.078,-0.197,-0.134,-0.41,-0.193,-0.016,0.0545,0.005
-0.4205,-0.6665,-0.246,0.544,-0.0875,-0.456,-0.064,-0.084,-0.203,-0.1405,-0.4165,-0.198,-0.0145,0.0505,0.0035
-0.426,-0.668,-0.2425,0.5475,-0.092,-0.455,-0.0645,-0.084,-0.2025,-0.1415,-0.414,-0.195,-0.0135,0.0565,0.0065
-0.436,-0.675,-0.2395,0.556,-0.098,-0.457,-0.063,-0.0825,-0.2025,-0.1425,-0.4175,-0.2,-0.018,0.06,0.008
-0.427,-0.677,-0.25,0.552,-0.0885,-0.463,-0.064,-0.083,-0.201,-0.142,-0.4205,-0.2025,-0.0195,0.057,0.004
-0.424,-0.6745,-0.2505,0.5495,-0.0865,-0.4625,-0.065,-0.0845,-0.2025,-0.145,-0.42,-0.2015,-0.0205,0.06,0.0025
-0.424,-0.6785,-0.2545,0.5515,-0.085,-0.4665,-0.066,-0.0865,-0.205,-0.1465,-0.423,-0.2055,-0.0215,0.0515,0.0035
-0.422,-0.6785,-0.2565,0.5505,-0.083,-0.4675,-0.0605,-0.0795,-0.1985,-0.1395,-0.417,-0.1975,-0.019,0.043,0.002
-0.421,-0.674,-0.253,0.548,-0.0845,-0.463,-0.0565,-0.076,-0.194,-0.135,-0.4145,-0.1935,-0.0205,0.044,0.001
-0.423,-0.6725,-0.249,0.548,-0.0875,-0.4605,-0.058,-0.077,-0.1955,-0.135,-0.417,-0.195,-0.02,0.0455,0.006
-0.4275,-0.6785,-0.2515,0.553,-0.088,-0.4645,-0.06,-0.0785,-0.198,-0.1365,-0.4205,-0.2,-0.02,0.045,0.0095
-0.429,-0.6845,-0.2555,0.557,-0.087,-0.4695,-0.064,-0.082,-0.202,-0.1405,-0.4255,-0.207,-0.022,0.044,0.007
-0.431,-0.6875,-0.2565,0.5595,-0.0875,-0.4715,-0.064,-0.0815,-0.2015,-0.1385,-0.426,-0.206,-0.022,0.049,0.005
-0.426,-0.6835,-0.2575,0.555,-0.0845,-0.47,-0.0645,-0.08,-0.198,-0.1365,-0.425,-0.205,-0.021,0.0475,0.0035
-0.4265,-0.6845,-0.2575,0.5555,-0.0845,-0.471,-0.061,-0.075,-0.1955,-0.135,-0.4235,-0.205,-0.0235,0.042,0.005
-0.4275,-0.686,-0.2585,0.557,-0.0845,-0.472,-0.0555,-0.0705,-0.191,-0.131,-0.42,-0.2015,-0.0235,0.043,0.0065
-0.416,-0.674,-0.2585,0.545,-0.0785,-0.466,-0.053,-0.0665,-0.1875,-0.1285,-0.4165,-0.199,-0.0205,0.04,0.0015
-0.423,-0.669,-0.246,0.546,-0.0885,-0.4575,-0.0525,-0.065,-0.1885,-0.1305,-0.42,-0.2055,-0.0255,0.0455,0.0025
-0.429,-0.6655,-0.2365,0.5475,-0.0965,-0.451,-0.0525,-0.0665,-0.188,-0.131,-0.421,-0.2045,-0.0255,0.045,0.0025
-0.419,-0.6605,-0.241,0.54,-0.089,-0.4505,-0.052,-0.0645,-0.186,-0.129,-0.4195,-0.201,-0.023,0.041,-0.0005
-0.4275,-0.669,-0.2415,0.5485,-0.093,-0.455,-0.054,-0.065,-0.1875,-0.131,-0.4215,-0.205,-0.0245,0.052,0.0005
-0.4355,-0.679,-0.244,0.5575,-0.0955,-0.4615,-0.0565,-0.068,-0.19,-0.134,-0.424,-0.207,-0.0235,0.0595,-0.0005
-0.446,-0.692,-0.246,0.5695,-0.1,-0.4685,-0.0585,-0.069,-0.1925,-0.1375,-0.426,-0.209,-0.0235,0.059,0.001
-0.452,-0.7005,-0.2485,0.5765,-0.102,-0.474,-0.058,-0.067,-0.191,-0.137,-0.4255,-0.209,-0.0265,0.0575,0.0015
