i,ii,iii,avr,avl,avf,v1,v2,v3,v4,v5,v6,vx,vy,vz
-0.824,-0.6885,0.136,0.756,-0.48,-0.2765,-0.447,-0.0705,0.448,0.0245,-0.2285,-0.314,0.044,0.3715,-0.307
-0.8255,-0.682,0.1445,0.7535,-0.485,-0.269,-0.446,-0.07,0.458,0.0375,-0.22,-0.312,0.0465,0.3855,-0.312
-0.8285,-0.666,0.1635,0.747,-0.496,-0.2515,-0.441,-0.064,0.4725,0.0575,-0.209,-0.3065,0.0485,0.39,-0.3285
-0.8175,-0.6505,0.1675,0.7335,-0.4925,-0.2415,-0.4475,-0.0615,0.4855,0.077,-0.1965,-0.3,0.0535,0.3965,-0.3305
-0.809,-0.639,0.1705,0.7235,-0.49,-0.2345,-0.4515,-0.061,0.494,0.0955,-0.1875,-0.2955,0.0585,0.406,-0.3405
-0.804,-0.6315,0.173,0.7175,-0.489,-0.229,-0.4525,-0.057,0.5035,0.113,-0.1805,-0.293,0.0575,0.4095,-0.3465
-0.7995,-0.629,0.171,0.714,-0.4855,-0.229,-0.451,-0.053,0.5155,0.1255,-0.1695,-0.287,0.061,0.4055,-0.352
-0.799,-0.6225,0.177,0.7105,-0.4885,-0.2225,-0.453,-0.05,0.5255,0.1385,-0.1555,-0.2795,0.069,0.41,-0.362
-0.8,-0.614,0.1865,0.7065,-0.4935,-0.214,-0.4575,-0.051,0.533,0.1505,-0.1475,-0.275,0.0765,0.425,-0.3695
-0.7995,-0.612,0.188,0.7055,-0.494,-0.212,-0.4615,-0.0505,0.54,0.163,-0.144,-0.275,0.081,0.43,-0.3765
-0.7975,-0.6,0.198,0.6985,-0.498,-0.201,-0.471,-0.051,0.5465,0.175,-0.138,-0.273,0.0815,0.441,-0.376
-0.8025,-0.588,0.2155,0.695,-0.509,-0.1865,-0.473,-0.0505,0.554,0.188,-0.1295,-0.267,0.083,0.4495,-0.384
-0.8095,-0.5885,0.2215,0.6985,-0.5155,-0.1835,-0.472,-0.0475,0.562,0.1995,-0.122,-0.265,0.0885,0.4555,-0.3965
-0.8025,-0.5845,0.2185,0.693,-0.5105,-0.1825,-0.4775,-0.046,0.568,0.208,-0.114,-0.2625,0.0945,0.462,-0.395
-0.7985,-0.5755,0.2235,0.687,-0.511,-0.176,-0.481,-0.047,0.574,0.218,-0.108,-0.2595,0.1005,0.4645,-0.3935
-0.8045,-0.567,0.2375,0.6855,-0.521,-0.165,-0.48,-0.045,0.5825,0.2295,-0.1005,-0.256,0.1045,0.4725,-0.4005
-0.8085,-0.559,0.25,0.6835,-0.5295,-0.1545,-0.4815,-0.0435,0.5875,0.242,-0.0895,-0.2505,0.104,0.486,-0.401
-0.797,-0.5445,0.2535,0.6705,-0.5255,-0.1455,-0.485,-0.042,0.5955,0.255,-0.079,-0.2445,0.1085,0.4955,-0.402
-0.7885,-0.527,0.262,0.6575,-0.5255,-0.1325,-0.484,-0.04,0.6035,0.2675,-0.07,-0.2375,0.115,0.5055,-0.4155
-0.7865,-0.521,0.266,0.6535,-0.5265,-0.1275,-0.492,-0.0435,0.605,0.2755,-0.061,-0.232,0.1245,0.5155,-0.415
-0.785,-0.518,0.2675,0.651,-0.5265,-0.1255,-0.4935,-0.0425,0.6095,0.285,-0.0525,-0.229,0.129,0.5155,-0.416
-0.7945,-0.519,0.276,0.6565,-0.5355,-0.1215,-0.4925,-0.046,0.6105,0.2915,-0.0495,-0.2295,0.1255,0.511,-0.429
-0.7915,-0.512,0.28,0.6515,-0.536,-0.116,-0.496,-0.047,0.612,0.299,-0.0425,-0.226,0.1305,0.513,-0.431
-0.782,-0.4985,0.2845,0.64,-0.5335,-0.107,-0.498,-0.045,0.6155,0.311,-0.0335,-0.22,0.136,0.522,-0.433
-0.781,-0.49,0.2915,0.6355,-0.5365,-0.0995,-0.5025,-0.048,0.6165,0.3185,-0.026,-0.214,0.136,0.529,-0.4355
-0.785,-0.4835,0.302,0.634,-0.5435,-0.091,-0.5,-0.0445,0.6225,0.3275,-0.016,-0.2075,0.139,0.5375,-0.439
-0.787,-0.483,0.3045,0.6345,-0.546,-0.089,-0.499,-0.043,0.6235,0.3345,-0.01,-0.204,0.1425,0.5365,-0.448
-0.7795,-0.475,0.305,0.627,-0.5425,-0.085,-0.503,-0.0435,0.622,0.339,-0.0035,-0.1985,0.1505,0.5405,-0.447
-0.779,-0.4705,0.309,0.6245,-0.5445,-0.0805,-0.506,-0.0465,0.62,0.3395,-0.0005,-0.1965,0.1545,0.5505,-0.448
-0.7825,-0.469,0.3145,0.6255,-0.5485,-0.0775,-0.512,-0.051,0.6165,0.3405,0.002,-0.198,0.151,0.5505,-0.4555
-0.7785,-0.4595,0.3195,0.6185,-0.5495,-0.07,-0.5155,-0.0515,0.6165,0.3455,0.0115,-0.192,0.1565,0.5565,-0.46
-0.775,-0.4545,0.321,0.6145,-0.5485,-0.067,-0.516,-0.052,0.615,0.3485,0.017,-0.188,0.16,0.5635,-0.457
-0.766,-0.4455,0.321,0.6055,-0.544,-0.062,-0.516,-0.054,0.6125,0.3495,0.0185,-0.188,0.1625,0.5645,-0.456
-0.767,-0.4445,0.3225,0.6055,-0.545,-0.061,-0.516,-0.055,0.611,0.35,0.0205,-0.1865,0.1605,0.5645,-0.4595
-0.775,-0.443,0.3325,0.609,-0.554,-0.0555,-0.5205,-0.058,0.608,0.351,0.024,-0.1855,0.1575,0.568,-0.4665
-0.777,-0.4375,0.34,0.6075,-0.559,-0.049,-0.5255,-0.0615,0.604,0.3555,0.0285,-0.1835,0.163,0.572,-0.4775
-0.779,-0.4325,0.347,0.6055,-0.563,-0.043,-0.531,-0.068,0.594,0.3545,0.028,-0.185,0.166,0.578,-0.478
-0.772,-0.4235,0.349,0.5975,-0.5605,-0.0375,-0.533,-0.07,0.5895,0.354,0.031,-0.1805,0.1685,0.58,-0.478
-0.7705,-0.4265,0.3445,0.598,-0.558,-0.041,-0.5335,-0.0735,0.584,0.353,0.034,-0.176,0.17,0.584,-0.4755
-0.7735,-0.417,0.357,0.595,-0.5655,-0.0305,-0.5365,-0.079,0.576,0.3505,0.0355,-0.176,0.1715,0.5835,-0.4785
-0.771,-0.4125,0.3585,0.5915,-0.565,-0.027,-0.5355,-0.0775,0.574,0.354,0.0415,-0.171,0.1745,0.5785,-0.4785
-0.779,-0.4175,0.3625,0.598,-0.571,-0.0275,-0.5375,-0.081,0.567,0.351,0.0415,-0.17,0.1725,0.586,-0.471
-0.793,-0.423,0.371,0.608,-0.5825,-0.026,-0.54,-0.085,0.558,0.3485,0.042,-0.172,0.166,0.5835,-0.4665
-0.792,-0.4245,0.3675,0.608,-0.58,-0.0285,-0.5445,-0.09,0.549,0.3455,0.0415,-0.1705,0.1655,0.585,-0.462
-0.785,-0.4205,0.365,0.6025,-0.5755,-0.0275,-0.5465,-0.097,0.5385,0.34,0.0405,-0.169,0.166,0.5865,-0.4655
-0.7785,-0.4245,0.3545,0.601,-0.5665,-0.035,-0.5435,-0.0985,0.529,0.338,0.0395,-0.1695,0.1645,0.5865,-0.457
-0.773,-0.4215,0.352,0.597,-0.5625,-0.0345,-0.5395,-0.096,0.5265,0.337,0.0425,-0.166,0.168,0.5875,-0.449
-0.768,-0.4145,0.3535,0.591,-0.561,-0.0305,-0.541,-0.0975,0.521,0.335,0.0445,-0.1645,0.1705,0.5845,-0.451
-0.7665,-0.4125,0.354,0.589,-0.5605,-0.0295,-0.5435,-0.102,0.512,0.33,0.0415,-0.1665,0.1675,0.5895,-0.4485
-0.763,-0.415,0.3485,0.589,-0.556,-0.0335,-0.5425,-0.104,0.5015,0.323,0.04,-0.1655,0.166,0.592,-0.441
-0.7635,-0.4185,0.3455,0.5905,-0.555,-0.036,-0.5455,-0.1085,0.4895,0.314,0.0385,-0.166,0.1675,0.5895,-0.4335
-0.772,-0.4245,0.348,0.598,-0.56,-0.0385,-0.543,-0.1085,0.481,0.3095,0.039,-0.164,0.167,0.5795,-0.434
-0.7645,-0.423,0.342,0.5935,-0.5535,-0.0405,-0.544,-0.111,0.4695,0.3015,0.0365,-0.165,0.168,0.5745,-0.436
-0.7625,-0.426,0.337,0.594,-0.55,-0.0445,-0.5465,-0.1155,0.458,0.2925,0.033,-0.168,0.166,0.5725,-0.432
-0.7815,-0.442,0.34,0.6115,-0.561,-0.051,-0.545,-0.1215,0.443,0.279,0.026,-0.1735,0.1605,0.574,-0.4255
-0.787,-0.445,0.3425,0.616,-0.565,-0.051,-0.543,-0.126,0.43,0.2665,0.0175,-0.178,0.158,0.572,-0.4215
-0.784,-0.444,0.341,0.614,-0.563,-0.0515,-0.5435,-0.128,0.4155,0.2545,0.011,-0.1795,0.157,0.5665,-0.415
-0.7885,-0.4565,0.3325,0.6225,-0.561,-0.062,-0.5465,-0.132,0.402,0.2415,0.0045,-0.183,0.1515,0.561,-0.402
-0.789,-0.469,0.3205,0.629,-0.555,-0.0745,-0.5455,-0.1335,0.389,0.23,-0.002,-0.1845,0.1475,0.549,-0.3955
-0.795,-0.472,0.3235,0.6335,-0.5595,-0.0745,-0.5465,-0.139,0.37,0.2125,-0.0085,-0.188,0.1465,0.5465,-0.3925
-0.801,-0.4855,0.3165,0.643,-0.559,-0.0845,-0.5425,-0.1425,0.3545,0.1985,-0.019,-0.195,0.138,0.5345,-0.3865
-0.8,-0.497,0.3035,0.6485,-0.552,-0.097,-0.5415,-0.1465,0.34,0.183,-0.0295,-0.201,0.1295,0.528,-0.378
-0.7995,-0.498,0.3025,0.6485,-0.5515,-0.0975,-0.5415,-0.1495,0.324,0.1665,-0.036,-0.2025,0.125,0.534,-0.3655
-0.8005,-0.502,0.299,0.651,-0.55,-0.1015,-0.54,-0.154,0.306,0.1485,-0.0455,-0.206,0.1205,0.5305,-0.357
-0.7955,-0.5065,0.2895,0.651,-0.543,-0.1085,-0.5415,-0.162,0.289,0.129,-0.0535,-0.212,0.1155,0.524,-0.344
-0.8005,-0.5285,0.2725,0.6645,-0.537,-0.128,-0.5365,-0.165,0.272,0.1135,-0.0635,-0.2155,0.11,0.508,-0.337
-0.8005,-0.548,0.253,0.674,-0.527,-0.1475,-0.532,-0.166,0.255,0.0955,-0.0725,-0.217,0.106,0.4875,-0.336
-0.8015,-0.558,0.2445,0.6795,-0.523,-0.157,-0.532,-0.1705,0.2385,0.078,-0.0805,-0.22,0.102,0.473,-0.325
-0.815,-0.577,0.2385,0.696,-0.527,-0.169,-0.5315,-0.176,0.2195,0.059,-0.093,-0.225,0.097,0.4645,-0.312
-0.8095,-0.587,0.223,0.698,-0.5165,-0.182,-0.5295,-0.1785,0.203,0.039,-0.105,-0.23,0.0915,0.4625,-0.3005
-0.8095,-0.598,0.2125,0.7035,-0.511,-0.1925,-0.531,-0.1865,0.185,0.0175,-0.1185,-0.236,0.0865,0.46,-0.285
-0.8115,-0.609,0.203,0.71,-0.5075,-0.203,-0.5275,-0.19,0.168,-0.001,-0.1285,-0.241,0.082,0.442,-0.2705
-0.806,-0.6155,0.191,0.7105,-0.4985,-0.2125,-0.5245,-0.191,0.1525,-0.0165,-0.138,-0.243,0.0805,0.4245,-0.2635
-0.8065,-0.6245,0.1825,0.715,-0.4945,-0.221,-0.5245,-0.194,0.137,-0.032,-0.1435,-0.244,0.0795,0.4205,-0.2565
-0.8175,-0.6315,0.186,0.724,-0.502,-0.2225,-0.52,-0.197,0.123,-0.0485,-0.1495,-0.2455,0.076,0.429,-0.2465
-0.8225,-0.6415,0.1815,0.732,-0.5025,-0.23,-0.52,-0.204,0.105,-0.0685,-0.163,-0.2515,0.0695,0.421,-0.242
-0.819,-0.6545,0.165,0.7365,-0.492,-0.245,-0.5175,-0.2085,0.088,-0.092,-0.1765,-0.262,0.064,0.3985,-0.2375
-0.829,-0.6755,0.1545,0.752,-0.492,-0.2605,-0.514,-0.2125,0.0705,-0.1145,-0.1915,-0.27,0.056,0.382,-0.2305
-0.8385,-0.6935,0.1455,0.7655,-0.492,-0.274,-0.5135,-0.2195,0.0535,-0.134,-0.203,-0.2745,0.0515,0.376,-0.2135
-0.8425,-0.7035,0.139,0.7725,-0.491,-0.282,-0.513,-0.224,0.0365,-0.1555,-0.2125,-0.2805,0.0505,0.376,-0.1925
-0.8415,-0.7135,0.1285,0.7775,-0.4855,-0.2925,-0.5095,-0.2265,0.0205,-0.177,-0.2235,-0.2875,0.04,0.3615,-0.182
-0.8455,-0.727,0.119,0.786,-0.4825,-0.304,-0.506,-0.2335,0.0035,-0.1975,-0.236,-0.294,0.0325,0.357,-0.175
-0.8535,-0.742,0.112,0.7975,-0.483,-0.315,-0.5075,-0.2405,-0.0135,-0.2165,-0.2475,-0.3005,0.029,0.3505,-0.167
-0.85,-0.746,0.1045,0.798,-0.4775,-0.3205,-0.506,-0.244,-0.028,-0.231,-0.2565,-0.3055,0.024,0.3435,-0.157
-0.8515,-0.752,0.1,0.8015,-0.476,-0.326,-0.498,-0.2475,-0.039,-0.2415,-0.263,-0.308,0.0255,0.3445,-0.148
-0.8535,-0.7635,0.0905,0.8085,-0.4725,-0.3365,-0.4945,-0.2465,-0.048,-0.249,-0.27,-0.3105,0.0235,0.331,-0.132
-0.8525,-0.7715,0.081,0.812,-0.467,-0.3455,-0.4905,-0.2465,-0.058,-0.2585,-0.276,-0.3135,0.0165,0.322,-0.121
-0.851,-0.777,0.0745,0.8135,-0.4625,-0.3515,-0.4885,-0.251,-0.071,-0.2725,-0.285,-0.3165,0.016,0.323,-0.1095
-0.8525,-0.7845,0.0685,0.8185,-0.461,-0.358,-0.4925,-0.256,-0.0865,-0.291,-0.2995,-0.323,0.011,0.3255,-0.0895
-0.8545,-0.7955,0.0595,0.8245,-0.457,-0.368,-0.4885,-0.2595,-0.0975,-0.3075,-0.3085,-0.327,0.0035,0.313,-0.0865
-0.849,-0.7995,0.0495,0.824,-0.4495,-0.375,-0.4855,-0.262,-0.109,-0.3195,-0.3155,-0.331,-0.004,0.299,-0.088
-0.8455,-0.803,0.043,0.824,-0.4445,-0.38,-0.4865,-0.2675,-0.1215,-0.3345,-0.3245,-0.3355,-0.0125,0.3005,-0.082
-0.8505,-0.821,0.03,0.8355,-0.4405,-0.3955,-0.4825,-0.2715,-0.1335,-0.3495,-0.3345,-0.3405,-0.017,0.295,-0.0685
-0.863,-0.838,0.026,0.85,-0.445,-0.406,-0.4815,-0.2755,-0.144,-0.365,-0.345,-0.348,-0.0295,0.291,-0.0675
-0.869,-0.8435,0.0265,0.856,-0.448,-0.4085,-0.478,-0.278,-0.1525,-0.3765,-0.3515,-0.349,-0.039,0.288,-0.067
-0.87,-0.8445,0.0255,0.857,-0.448,-0.4095,-0.4775,-0.2825,-0.163,-0.3855,-0.357,-0.3485,-0.038,0.2805,-0.062
-0.875,-0.848,0.028,0.861,-0.4515,-0.41,-0.48,-0.292,-0.175,-0.401,-0.3665,-0.3555,-0.042,0.277,-0.0585
-0.8745,-0.855,0.02,0.8645,-0.4475,-0.4175,-0.482,-0.2955,-0.186,-0.414,-0.3755,-0.362,-0.0485,0.275,-0.041
-0.875,-0.855,0.0205,0.8645,-0.448,-0.417,-0.475,-0.296,-0.192,-0.421,-0.3785,-0.3625,-0.0525,0.272,-0.044
-0.876,-0.8555,0.021,0.8655,-0.449,-0.417,-0.467,-0.298,-0.1965,-0.429,-0.381,-0.36,-0.055,0.27,-0.045
-0.875,-0.8565,0.0195,0.8655,-0.4475,-0.4185,-0.4695,-0.298,-0.202,-0.4355,-0.387,-0.3615,-0.0585,0.2755,-0.039
-0.878,-0.858,0.021,0.8675,-0.45,-0.4185,-0.467,-0.2985,-0.2065,-0.4425,-0.3935,-0.368,-0.066,0.273,-0.042
-0.8715,-0.854,0.018,0.8625,-0.445,-0.418,-0.467,-0.298,-0.2105,-0.447,-0.394,-0.3675,-0.067,0.264,-0.0455
-0.865,-0.85,0.0155,0.857,-0.4405,-0.417,-0.462,-0.2955,-0.2135,-0.4515,-0.396,-0.366,-0.0645,0.2555,-0.0425
-0.8635,-0.8595,0.0045,0.8615,-0.4345,-0.4275,-0.45,-0.2945,-0.2175,-0.458,-0.4015,-0.3715,-0.068,0.255,-0.02
-0.868,-0.8625,0.0065,0.865,-0.4375,-0.428,-0.448,-0.292,-0.2185,-0.461,-0.4005,-0.371,-0.072,0.256,-0.0305
-0.872,-0.8675,0.005,0.8695,-0.4385,-0.431,-0.442,-0.288,-0.2185,-0.4645,-0.405,-0.373,-0.0725,0.2515,-0.0365
-0.867,-0.8725,-0.005,0.8695,-0.431,-0.439,-0.4335,-0.287,-0.2235,-0.4705,-0.412,-0.3745,-0.075,0.2525,-0.024
-0.8675,-0.8725,-0.005,0.8695,-0.4315,-0.4385,-0.429,-0.288,-0.2275,-0.476,-0.415,-0.372,-0.079,0.2495,-0.04
-0.865,-0.876,-0.0105,0.87,-0.4275,-0.443,-0.424,-0.2895,-0.2325,-0.4825,-0.4225,-0.3785,-0.081,0.2465,-0.04
-0.8695,-0.878,-0.008,0.8735,-0.431,-0.443,-0.425,-0.2895,-0.2385,-0.489,-0.429,-0.385,-0.084,0.2455,-0.0315
-0.869,-0.8765,-0.0075,0.8725,-0.431,-0.442,-0.42,-0.2885,-0.239,-0.4935,-0.43,-0.3835,-0.0845,0.2435,-0.0335
-0.8625,-0.874,-0.011,0.868,-0.426,-0.4425,-0.413,-0.287,-0.239,-0.4975,-0.431,-0.3835,-0.082,0.242,-0.033
-0.8755,-0.8745,0.0015,0.8745,-0.4385,-0.4365,-0.4105,-0.2825,-0.237,-0.5,-0.431,-0.3825,-0.0855,0.242,-0.037
-0.8775,-0.8735,0.0045,0.875,-0.441,-0.435,-0.4045,-0.279,-0.237,-0.5055,-0.4325,-0.3855,-0.0905,0.241,-0.045
-0.873,-0.878,-0.0045,0.875,-0.4345,-0.441,-0.4035,-0.2805,-0.2415,-0.514,-0.439,-0.3915,-0.097,0.236,-0.0465
-0.8665,-0.878,-0.011,0.872,-0.4275,-0.4445,-0.405,-0.2805,-0.2435,-0.5195,-0.441,-0.3915,-0.093,0.23,-0.0395
-0.862,-0.878,-0.016,0.87,-0.4235,-0.447,-0.4045,-0.2785,-0.242,-0.5205,-0.4425,-0.3915,-0.0905,0.227,-0.036
-0.8705,-0.888,-0.017,0.879,-0.427,-0.4525,-0.402,-0.274,-0.239,-0.521,-0.443,-0.391,-0.0955,0.222,-0.0375
-0.872,-0.892,-0.0195,0.8815,-0.4265,-0.4555,-0.4035,-0.2725,-0.2405,-0.5225,-0.4435,-0.3905,-0.0935,0.22,-0.03
-0.8805,-0.903,-0.022,0.8915,-0.4295,-0.4625,-0.401,-0.27,-0.2405,-0.5265,-0.4485,-0.3945,-0.094,0.2215,-0.026
-0.8805,-0.9135,-0.0325,0.897,-0.424,-0.473,-0.395,-0.262,-0.2345,-0.5225,-0.4475,-0.394,-0.0945,0.2155,-0.025
-0.8745,-0.911,-0.0365,0.8925,-0.4195,-0.4735,-0.394,-0.258,-0.232,-0.5195,-0.4475,-0.393,-0.095,0.207,-0.0245
-0.8725,-0.9135,-0.041,0.893,-0.4165,-0.4775,-0.393,-0.258,-0.235,-0.525,-0.4525,-0.395,-0.096,0.201,-0.0235
-0.865,-0.9135,-0.048,0.889,-0.4085,-0.4805,-0.399,-0.26,-0.235,-0.5285,-0.452,-0.394,-0.096,0.203,-0.0245
-0.8625,-0.9115,-0.0485,0.8865,-0.4075,-0.48,-0.4055,-0.26,-0.2345,-0.529,-0.4525,-0.395,-0.0905,0.199,-0.028
-0.866,-0.919,-0.0525,0.892,-0.407,-0.4855,-0.407,-0.26,-0.2335,-0.529,-0.4545,-0.394,-0.085,0.1905,-0.027
-0.87,-0.9205,-0.05,0.895,-0.41,-0.485,-0.412,-0.263,-0.235,-0.5325,-0.457,-0.3945,-0.088,0.1955,-0.0335
-0.866,-0.919,-0.0525,0.8925,-0.407,-0.486,-0.4145,-0.2625,-0.2365,-0.534,-0.459,-0.398,-0.088,0.193,-0.038
-0.8605,-0.9185,-0.058,0.889,-0.4015,-0.4885,-0.406,-0.256,-0.232,-0.531,-0.4565,-0.3975,-0.085,0.192,-0.038
-0.8565,-0.9075,-0.0505,0.882,-0.403,-0.479,-0.4045,-0.253,-0.2295,-0.5295,-0.457,-0.3965,-0.084,0.2015,-0.034
-0.8605,-0.9095,-0.048,0.885,-0.4065,-0.4785,-0.402,-0.2465,-0.2245,-0.5285,-0.457,-0.397,-0.0865,0.1975,-0.029
-0.8635,-0.917,-0.053,0.8905,-0.4055,-0.485,-0.3995,-0.2375,-0.218,-0.5245,-0.4545,-0.3955,-0.0845,0.1975,-0.0265
-0.856,-0.9165,-0.06,0.886,-0.398,-0.4885,-0.404,-0.235,-0.2125,-0.5215,-0.453,-0.3925,-0.0815,0.2035,-0.0175
-0.856,-0.9155,-0.059,0.8855,-0.3985,-0.4875,-0.399,-0.227,-0.204,-0.517,-0.453,-0.3945,-0.081,0.205,-0.019
-0.857,-0.9075,-0.05,0.882,-0.404,-0.4785,-0.399,-0.2235,-0.1995,-0.5115,-0.45,-0.3935,-0.0805,0.21,-0.0265
-0.852,-0.9005,-0.048,0.876,-0.4025,-0.474,-0.4045,-0.2255,-0.1985,-0.511,-0.449,-0.394,-0.0795,0.2135,-0.035
-0.849,-0.8955,-0.046,0.872,-0.402,-0.4705,-0.406,-0.2245,-0.194,-0.508,-0.445,-0.3915,-0.0785,0.2165,-0.0415
-0.852,-0.891,-0.0385,0.871,-0.407,-0.465,-0.4075,-0.2225,-0.1875,-0.4995,-0.4375,-0.3845,-0.0715,0.223,-0.0365
-0.8585,-0.895,-0.036,0.8765,-0.4115,-0.4655,-0.4135,-0.2245,-0.1835,-0.495,-0.435,-0.383,-0.0715,0.2255,-0.0345
-0.86,-0.8925,-0.032,0.876,-0.414,-0.4625,-0.4295,-0.237,-0.186,-0.493,-0.4325,-0.379,-0.075,0.228,-0.04
-0.8555,-0.8815,-0.025,0.868,-0.4155,-0.4535,-0.4395,-0.2445,-0.187,-0.4935,-0.4315,-0.377,-0.074,0.233,-0.039
-0.856,-0.8775,-0.0205,0.8665,-0.418,-0.449,-0.4365,-0.247,-0.184,-0.4915,-0.4295,-0.376,-0.0775,0.2365,-0.0415
-0.8525,-0.874,-0.021,0.863,-0.416,-0.4475,-0.44,-0.2525,-0.1835,-0.488,-0.4255,-0.371,-0.072,0.238,-0.0385
-0.844,-0.8645,-0.02,0.854,-0.4125,-0.442,-0.446,-0.2585,-0.1825,-0.4845,-0.4215,-0.367,-0.068,0.243,-0.0335
-0.8365,-0.8545,-0.017,0.845,-0.41,-0.436,-0.4475,-0.262,-0.1815,-0.481,-0.4165,-0.3625,-0.0655,0.248,-0.031
-0.8265,-0.849,-0.022,0.8375,-0.4025,-0.4355,-0.4515,-0.263,-0.179,-0.4785,-0.415,-0.3595,-0.064,0.2465,-0.0335
-0.8265,-0.846,-0.019,0.836,-0.404,-0.4325,-0.459,-0.2715,-0.182,-0.476,-0.411,-0.359,-0.0685,0.252,-0.0395
-0.832,-0.8495,-0.017,0.8405,-0.408,-0.433,-0.4675,-0.2795,-0.187,-0.4795,-0.409,-0.3585,-0.067,0.261,-0.0295
-0.8375,-0.852,-0.014,0.8445,-0.412,-0.433,-0.474,-0.2905,-0.1935,-0.483,-0.4125,-0.3585,-0.066,0.2615,-0.035
-0.8415,-0.854,-0.012,0.8475,-0.415,-0.433,-0.488,-0.3175,-0.209,-0.4875,-0.414,-0.359,-0.0645,0.2625,-0.026
-0.835,-0.854,-0.0185,0.8445,-0.4085,-0.4365,-0.5075,-0.341,-0.2205,-0.487,-0.4125,-0.357,-0.061,0.264,-0.017
-0.8275,-0.844,-0.0155,0.8355,-0.4065,-0.4295,-0.521,-0.3545,-0.2275,-0.488,-0.412,-0.355,-0.058,0.265,-0.0185
-0.826,-0.8365,-0.01,0.831,-0.4085,-0.423,-0.525,-0.358,-0.2305,-0.492,-0.4135,-0.3545,-0.06,0.2695,-0.0175
-0.829,-0.84,-0.0105,0.8345,-0.4095,-0.425,-0.523,-0.3525,-0.2275,-0.4895,-0.4105,-0.353,-0.06,0.2675,-0.0235
-0.8355,-0.846,-0.01,0.8405,-0.413,-0.428,-0.525,-0.352,-0.228,-0.491,-0.4085,-0.352,-0.0535,0.272,-0.0155
-0.8465,-0.845,0.002,0.8455,-0.4245,-0.4215,-0.526,-0.3565,-0.2305,-0.494,-0.41,-0.3525,-0.054,0.279,-0.0125
-0.8475,-0.8445,0.0035,0.846,-0.426,-0.4205,-0.5245,-0.353,-0.229,-0.493,-0.4065,-0.35,-0.053,0.2825,-0.011
-0.846,-0.8455,0.001,0.8455,-0.424,-0.422,-0.5215,-0.3505,-0.2265,-0.4935,-0.403,-0.347,-0.049,0.2825,-0.013
-0.843,-0.842,0.0015,0.8425,-0.4225,-0.42,-0.5225,-0.351,-0.227,-0.494,-0.4005,-0.345,-0.0465,0.2755,-0.012
-0.846,-0.834,0.013,0.8395,-0.4295,-0.4105,-0.526,-0.3515,-0.2285,-0.493,-0.3995,-0.346,-0.0465,0.276,-0.016
-0.8515,-0.8225,0.0295,0.837,-0.441,-0.3965,-0.5255,-0.355,-0.2295,-0.492,-0.3985,-0.3455,-0.0495,0.2875,-0.0185
-0.8395,-0.815,0.025,0.827,-0.4325,-0.395,-0.528,-0.353,-0.229,-0.4875,-0.3925,-0.3385,-0.0465,0.2905,-0.017
-0.8395,-0.8155,0.0245,0.8275,-0.432,-0.3955,-0.525,-0.352,-0.2295,-0.4835,-0.3905,-0.336,-0.042,0.287,-0.0225
-0.8335,-0.8145,0.0195,0.824,-0.427,-0.3975,-0.5225,-0.3525,-0.228,-0.476,-0.386,-0.332,-0.0335,0.292,-0.0155
-0.8255,-0.819,0.007,0.822,-0.4165,-0.406,-0.5185,-0.3455,-0.22,-0.4645,-0.378,-0.3255,-0.027,0.285,-0.0125
-0.822,-0.822,0.0005,0.822,-0.4115,-0.4105,-0.5135,-0.3425,-0.2165,-0.463,-0.3755,-0.3225,-0.024,0.277,-0.012
-0.817,-0.8185,-0.001,0.8175,-0.4085,-0.4095,-0.5195,-0.3455,-0.2195,-0.4675,-0.3765,-0.3225,-0.0225,0.285,-0.005
-0.8135,-0.817,-0.003,0.815,-0.4055,-0.41,-0.519,-0.3455,-0.2195,-0.467,-0.3755,-0.3205,-0.023,0.288,-0.0045
-0.81,-0.8205,-0.01,0.815,-0.4005,-0.4155,-0.5135,-0.3425,-0.222,-0.4665,-0.3755,-0.32,-0.0215,0.284,0.003
-0.813,-0.8285,-0.015,0.8205,-0.3995,-0.4215,-0.514,-0.343,-0.2245,-0.469,-0.3765,-0.322,-0.0205,0.2795,0.0115
-0.806,-0.8245,-0.0175,0.815,-0.3945,-0.421,-0.515,-0.3435,-0.223,-0.4665,-0.3745,-0.32,-0.019,0.275,0.006
-0.798,-0.8235,-0.025,0.8105,-0.387,-0.4245,-0.5125,-0.341,-0.2195,-0.4635,-0.3725,-0.317,-0.0165,0.268,0.0095
-0.797,-0.825,-0.027,0.8105,-0.3855,-0.426,-0.508,-0.3365,-0.214,-0.4585,-0.3675,-0.312,-0.0145,0.2615,0.0
-0.8025,-0.8235,-0.021,0.8125,-0.391,-0.4225,-0.5065,-0.336,-0.215,-0.4565,-0.3665,-0.311,-0.016,0.266,-0.015
-0.8095,-0.832,-0.0215,0.8205,-0.394,-0.427,-0.51,-0.3415,-0.22,-0.46,-0.369,-0.3155,-0.019,0.2615,-0.0185
-0.8275,-0.835,-0.0065,0.831,-0.4105,-0.421,-0.51,-0.346,-0.2235,-0.4645,-0.3715,-0.32,-0.021,0.267,-0.021
-0.835,-0.8395,-0.004,0.837,-0.416,-0.4215,-0.5065,-0.3445,-0.225,-0.464,-0.3715,-0.3205,-0.0225,0.265,-0.0225
-0.8255,-0.835,-0.009,0.83,-0.4085,-0.422,-0.5025,-0.3375,-0.219,-0.4565,-0.365,-0.3145,-0.017,0.252,-0.03
-0.8315,-0.828,0.004,0.8295,-0.418,-0.412,-0.5,-0.3345,-0.214,-0.4515,-0.3595,-0.3085,-0.0135,0.268,-0.029
-0.831,-0.8285,0.003,0.8295,-0.4175,-0.413,-0.5005,-0.337,-0.215,-0.452,-0.3565,-0.3075,-0.017,0.27,-0.027
-0.8345,-0.834,0.001,0.834,-0.418,-0.4165,-0.507,-0.3425,-0.221,-0.4565,-0.3605,-0.311,-0.017,0.261,-0.0275
-0.841,-0.844,-0.0025,0.8425,-0.4195,-0.423,-0.505,-0.343,-0.2225,-0.458,-0.3615,-0.312,-0.015,0.258,-0.0265
-0.8345,-0.8455,-0.01,0.8395,-0.4125,-0.428,-0.5,-0.341,-0.2215,-0.4565,-0.3585,-0.3115,-0.0145,0.2515,-0.0195
-0.831,-0.8505,-0.0185,0.8405,-0.4065,-0.4345,-0.5,-0.3375,-0.2225,-0.4565,-0.36,-0.313,-0.017,0.2475,-0.014
-0.8215,-0.8495,-0.0275,0.8355,-0.3975,-0.4385,-0.4985,-0.3365,-0.222,-0.456,-0.3595,-0.311,-0.0195,0.242,-0.014
-0.8175,-0.8545,-0.0365,0.836,-0.3905,-0.4455,-0.4985,-0.3365,-0.223,-0.4555,-0.36,-0.3085,-0.0195,0.2365,-0.0035
-0.8215,-0.86,-0.038,0.8405,-0.392,-0.449,-0.498,-0.3385,-0.2265,-0.46,-0.3625,-0.31,-0.0175,0.2395,-0.0005
-0.8225,-0.863,-0.04,0.8425,-0.3915,-0.4515,-0.5015,-0.344,-0.232,-0.464,-0.3665,-0.312,-0.0175,0.234,0.003
-0.8275,-0.8705,-0.0425,0.8485,-0.3925,-0.457,-0.5025,-0.346,-0.2365,-0.467,-0.37,-0.3145,-0.017,0.23,0.0075
-0.84,-0.881,-0.0405,0.86,-0.4,-0.4605,-0.5025,-0.351,-0.2445,-0.476,-0.38,-0.321,-0.0215,0.2245,0.009
-0.845,-0.8875,-0.042,0.866,-0.402,-0.4645,-0.5005,-0.3565,-0.2495,-0.483,-0.386,-0.3255,-0.025,0.2245,0.01
-0.8405,-0.886,-0.045,0.863,-0.398,-0.4655,-0.499,-0.358,-0.252,-0.4865,-0.387,-0.3265,-0.027,0.2285,0.0095
-0.839,-0.893,-0.054,0.866,-0.393,-0.4735,-0.5035,-0.364,-0.259,-0.491,-0.3895,-0.329,-0.0295,0.2205,0.018
-0.8415,-0.8905,-0.0485,0.866,-0.3965,-0.4695,-0.5,-0.3675,-0.26,-0.492,-0.3895,-0.3305,-0.03,0.223,0.0195
-0.8515,-0.887,-0.035,0.869,-0.4085,-0.461,-0.4955,-0.366,-0.259,-0.493,-0.3925,-0.333,-0.0365,0.2255,0.0135
-0.8695,-0.89,-0.02,0.8795,-0.425,-0.455,-0.497,-0.3705,-0.2635,-0.497,-0.3955,-0.3375,-0.0435,0.232,0.0065
-0.882,-0.8965,-0.014,0.889,-0.4345,-0.455,-0.49,-0.366,-0.2605,-0.4985,-0.396,-0.338,-0.052,0.235,0.003
-0.891,-0.909,-0.0175,0.8995,-0.437,-0.4635,-0.483,-0.365,-0.2665,-0.5055,-0.405,-0.345,-0.061,0.2285,0.013
-0.9,-0.9205,-0.02,0.91,-0.44,-0.47,-0.481,-0.3705,-0.276,-0.518,-0.4165,-0.357,-0.0675,0.2145,0.015
-0.9055,-0.9235,-0.0175,0.9145,-0.444,-0.4705,-0.4775,-0.3675,-0.2785,-0.524,-0.4255,-0.366,-0.0775,0.207,0.0095
-0.9115,-0.9275,-0.016,0.9195,-0.448,-0.4715,-0.476,-0.3685,-0.285,-0.53,-0.4355,-0.3765,-0.0835,0.205,0.02
-0.907,-0.928,-0.0205,0.9175,-0.4435,-0.4745,-0.472,-0.365,-0.284,-0.526,-0.435,-0.376,-0.083,0.203,0.025
-0.899,-0.9165,-0.0175,0.9075,-0.441,-0.467,-0.4695,-0.363,-0.2835,-0.5185,-0.4325,-0.373,-0.086,0.208,0.0195
-0.889,-0.9135,-0.0245,0.901,-0.4325,-0.469,-0.472,-0.3645,-0.2835,-0.52,-0.4315,-0.3725,-0.0845,0.1955,0.018
-0.883,-0.915,-0.0315,0.899,-0.426,-0.4735,-0.4715,-0.365,-0.285,-0.523,-0.432,-0.3735,-0.0845,0.1975,0.0235
-0.8845,-0.9205,-0.0355,0.902,-0.425,-0.478,-0.469,-0.3675,-0.2875,-0.526,-0.4355,-0.377,-0.09,0.203,0.029
-0.882,-0.9205,-0.038,0.9015,-0.4225,-0.4795,-0.468,-0.3675,-0.2865,-0.527,-0.4355,-0.3765,-0.0915,0.2025,0.0235
-0.879,-0.9155,-0.036,0.897,-0.4215,-0.476,-0.464,-0.366,-0.288,-0.5285,-0.436,-0.3755,-0.088,0.2065,0.0165
-0.881,-0.918,-0.0365,0.899,-0.4225,-0.4775,-0.46,-0.366,-0.29,-0.532,-0.4385,-0.378,-0.089,0.198,0.014
-0.895,-0.924,-0.0285,0.9095,-0.4335,-0.4765,-0.4605,-0.369,-0.295,-0.538,-0.4425,-0.384,-0.0935,0.1905,0.008
-0.888,-0.925,-0.0365,0.906,-0.426,-0.4805,-0.4625,-0.374,-0.3005,-0.5455,-0.4475,-0.3885,-0.087,0.18,0.005
-0.8815,-0.93,-0.0475,0.9055,-0.4175,-0.4885,-0.4705,-0.378,-0.3055,-0.5505,-0.4545,-0.3935,-0.0875,0.1665,0.009
-0.892,-0.9375,-0.045,0.9145,-0.424,-0.491,-0.4665,-0.3775,-0.3065,-0.552,-0.4555,-0.394,-0.09,0.169,0.01
-0.888,-0.9265,-0.0385,0.907,-0.425,-0.4825,-0.46,-0.373,-0.304,-0.5485,-0.4515,-0.3905,-0.088,0.1855,0.0125
-0.891,-0.9275,-0.036,0.909,-0.4275,-0.482,-0.4665,-0.3765,-0.3075,-0.5515,-0.4535,-0.3945,-0.0925,0.182,0.0205
-0.899,-0.934,-0.034,0.9165,-0.4325,-0.484,-0.4695,-0.3815,-0.3155,-0.5595,-0.4585,-0.3995,-0.0925,0.171,0.02
-0.9,-0.9345,-0.0335,0.917,-0.4335,-0.484,-0.4655,-0.3785,-0.312,-0.5565,-0.457,-0.3975,-0.097,0.1765,0.0195
-0.8995,-0.945,-0.045,0.922,-0.4275,-0.495,-0.463,-0.378,-0.3095,-0.556,-0.4555,-0.3965,-0.0995,0.175,0.0325
-0.8975,-0.948,-0.0495,0.9225,-0.4245,-0.499,-0.465,-0.3765,-0.311,-0.557,-0.4555,-0.3955,-0.099,0.1735,0.0435
-0.8955,-0.9465,-0.0505,0.921,-0.423,-0.4985,-0.458,-0.3735,-0.3105,-0.5555,-0.454,-0.3955,-0.1025,0.1775,0.0515
-0.9025,-0.9425,-0.0395,0.922,-0.4315,-0.491,-0.461,-0.3775,-0.314,-0.56,-0.4575,-0.4,-0.1065,0.1935,0.052
-0.91,-0.942,-0.0315,0.926,-0.4395,-0.487,-0.4675,-0.38,-0.3145,-0.5615,-0.459,-0.3995,-0.107,0.205,0.0465
-0.9075,-0.952,-0.0435,0.9295,-0.432,-0.4975,-0.467,-0.3835,-0.32,-0.564,-0.4605,-0.4005,-0.1075,0.193,0.041
-0.908,-0.9575,-0.049,0.932,-0.4295,-0.5035,-0.4705,-0.3855,-0.322,-0.5675,-0.463,-0.4025,-0.113,0.1855,0.042
-0.9055,-0.9555,-0.0495,0.9305,-0.428,-0.5025,-0.4655,-0.382,-0.318,-0.564,-0.4605,-0.401,-0.1125,0.186,0.044
-0.9015,-0.953,-0.0505,0.927,-0.4255,-0.502,-0.462,-0.3805,-0.32,-0.563,-0.4605,-0.402,-0.112,0.184,0.0445
-0.902,-0.9545,-0.052,0.928,-0.4255,-0.503,-0.461,-0.3825,-0.324,-0.568,-0.464,-0.4045,-0.1135,0.183,0.051
-0.8985,-0.96,-0.061,0.929,-0.419,-0.5105,-0.4655,-0.3845,-0.3275,-0.57,-0.468,-0.407,-0.1135,0.177,0.057
-0.9,-0.962,-0.0615,0.931,-0.4195,-0.512,-0.467,-0.3835,-0.3285,-0.568,-0.467,-0.4065,-0.112,0.18,0.0555
-0.9055,-0.962,-0.056,0.934,-0.425,-0.509,-0.46,-0.382,-0.329,-0.568,-0.467,-0.4035,-0.112,0.1875,0.0585
-0.906,-0.9695,-0.0625,0.9375,-0.422,-0.516,-0.465,-0.385,-0.3325,-0.574,-0.473,-0.4055,-0.116,0.1845,0.0655
-0.906,-0.969,-0.0625,0.937,-0.422,-0.516,-0.465,-0.3865,-0.3345,-0.5765,-0.4735,-0.407,-0.1185,0.1875,0.053
-0.909,-0.97,-0.06,0.9395,-0.425,-0.515,-0.4605,-0.3835,-0.333,-0.578,-0.4735,-0.4075,-0.1195,0.1845,0.0485
-0.914,-0.979,-0.0645,0.9465,-0.425,-0.522,-0.462,-0.383,-0.334,-0.584,-0.474,-0.4105,-0.121,0.175,0.0565
-0.9115,-0.9815,-0.0695,0.946,-0.421,-0.5255,-0.4625,-0.3845,-0.337,-0.5875,-0.4765,-0.411,-0.118,0.174,0.0615
-0.916,-0.9825,-0.066,0.949,-0.425,-0.5245,-0.4645,-0.3885,-0.342,-0.595,-0.482,-0.413,-0.1175,0.18,0.06
-0.915,-0.984,-0.068,0.949,-0.4235,-0.526,-0.463,-0.3865,-0.3425,-0.599,-0.4825,-0.4135,-0.1185,0.1795,0.0585
-0.915,-0.985,-0.0695,0.9495,-0.423,-0.527,-0.462,-0.386,-0.344,-0.598,-0.482,-0.414,-0.118,0.1755,0.0635
-0.921,-0.987,-0.0655,0.9535,-0.428,-0.526,-0.459,-0.3855,-0.3435,-0.5975,-0.479,-0.414,-0.117,0.1725,0.063
-0.9155,-0.987,-0.071,0.9505,-0.4225,-0.529,-0.456,-0.3815,-0.3405,-0.593,-0.4785,-0.411,-0.114,0.1685,0.0595
-0.9205,-0.9875,-0.0665,0.9535,-0.4275,-0.527,-0.457,-0.3835,-0.3445,-0.5945,-0.483,-0.4155,-0.119,0.1755,0.058
-0.9205,-0.9825,-0.0615,0.951,-0.4295,-0.522,-0.4555,-0.382,-0.3435,-0.591,-0.482,-0.4165,-0.119,0.174,0.0565
-0.9145,-0.982,-0.0675,0.948,-0.424,-0.525,-0.457,-0.381,-0.3435,-0.5845,-0.4795,-0.4135,-0.114,0.165,0.058
-0.917,-0.988,-0.0705,0.9525,-0.4235,-0.5295,-0.4575,-0.3825,-0.3475,-0.5875,-0.481,-0.4155,-0.1145,0.1615,0.0605
-0.919,-0.9955,-0.076,0.957,-0.4215,-0.536,-0.453,-0.381,-0.3485,-0.591,-0.4835,-0.417,-0.119,0.162,0.057
-0.917,-1.0005,-0.083,0.9585,-0.417,-0.542,-0.4495,-0.377,-0.3475,-0.59,-0.481,-0.4155,-0.121,0.1585,0.056
-0.916,-0.993,-0.0765,0.9545,-0.42,-0.535,-0.4505,-0.378,-0.3485,-0.591,-0.481,-0.415,-0.121,0.16,0.054
-0.9195,-0.9915,-0.0715,0.955,-0.4245,-0.5315,-0.458,-0.3835,-0.354,-0.5985,-0.4875,-0.4205,-0.1265,0.16,0.0485
-0.9135,-0.989,-0.075,0.951,-0.4195,-0.532,-0.4565,-0.384,-0.356,-0.6015,-0.49,-0.4215,-0.125,0.1545,0.0525
-0.906,-0.9865,-0.08,0.946,-0.4135,-0.533,-0.4545,-0.383,-0.3555,-0.6015,-0.49,-0.4205,-0.121,0.1525,0.0565
-0.905,-0.992,-0.0865,0.9485,-0.4095,-0.5395,-0.4555,-0.381,-0.3555,-0.6015,-0.488,-0.4185,-0.1195,0.1515,0.0595
-0.9065,-0.993,-0.086,0.9495,-0.4105,-0.5395,-0.4505,-0.3795,-0.3535,-0.5995,-0.486,-0.4155,-0.1155,0.1545,0.061
-0.9105,-0.9955,-0.0845,0.953,-0.4135,-0.54,-0.45,-0.3785,-0.354,-0.6015,-0.487,-0.4175,-0.1155,0.146,0.054
-0.9185,-1.0045,-0.086,0.961,-0.4165,-0.545,-0.451,-0.3815,-0.358,-0.6065,-0.4905,-0.42,-0.118,0.1425,0.0525
-0.9275,-1.0115,-0.0835,0.969,-0.422,-0.5475,-0.455,-0.386,-0.3625,-0.6105,-0.4925,-0.422,-0.121,0.1465,0.054
-0.9275,-1.006,-0.0775,0.9665,-0.425,-0.5415,-0.4545,-0.3865,-0.365,-0.6125,-0.4945,-0.423,-0.121,0.1605,0.0575
-0.9225,-1.003,-0.08,0.9625,-0.4215,-0.5415,-0.448,-0.384,-0.364,-0.613,-0.4945,-0.421,-0.1215,0.158,0.0555
-0.922,-1.0045,-0.0825,0.963,-0.42,-0.5435,-0.4485,-0.383,-0.3645,-0.6135,-0.495,-0.422,-0.126,0.1445,0.049
-0.9315,-1.0135,-0.082,0.972,-0.425,-0.548,-0.4555,-0.3875,-0.3675,-0.617,-0.5,-0.426,-0.1235,0.141,0.0535
-0.937,-1.027,-0.0895,0.982,-0.424,-0.5585,-0.455,-0.388,-0.369,-0.618,-0.501,-0.4265,-0.123,0.1325,0.059
-0.9335,-1.021,-0.0865,0.977,-0.4235,-0.554,-0.453,-0.388,-0.3695,-0.617,-0.4995,-0.4265,-0.124,0.1485,0.0615
-0.936,-1.016,-0.0795,0.976,-0.4285,-0.548,-0.455,-0.3895,-0.3685,-0.6175,-0.5015,-0.428,-0.1245,0.158,0.061
-0.9285,-1.02,-0.091,0.974,-0.4195,-0.5555,-0.4535,-0.3875,-0.367,-0.6165,-0.5005,-0.427,-0.123,0.1435,0.061
-0.928,-1.0265,-0.098,0.977,-0.4155,-0.562,-0.457,-0.389,-0.369,-0.6175,-0.503,-0.429,-0.123,0.1365,0.065
-0.9275,-1.0325,-0.1045,0.98,-0.4115,-0.5685,-0.4575,-0.3905,-0.3705,-0.618,-0.505,-0.4315,-0.124,0.134,0.0715
-0.913,-1.0285,-0.1155,0.9705,-0.399,-0.572,-0.4565,-0.389,-0.3675,-0.6145,-0.5005,-0.428,-0.1215,0.1405,0.074
-0.92,-1.0285,-0.1085,0.974,-0.406,-0.5685,-0.4595,-0.391,-0.368,-0.6165,-0.503,-0.432,-0.1265,0.1485,0.068
-0.9315,-1.0335,-0.102,0.9825,-0.415,-0.5675,-0.457,-0.3915,-0.3685,-0.6195,-0.5075,-0.434,-0.1285,0.1455,0.0645
-0.9345,-1.03,-0.095,0.982,-0.42,-0.5625,-0.4505,-0.387,-0.3645,-0.616,-0.506,-0.4315,-0.126,0.152,0.0605
-0.937,-1.028,-0.0905,0.982,-0.4235,-0.559,-0.4545,-0.3905,-0.37,-0.6185,-0.51,-0.4355,-0.1255,0.1565,0.059
-0.9315,-1.0325,-0.1005,0.9815,-0.4155,-0.5665,-0.458,-0.394,-0.3735,-0.624,-0.513,-0.437,-0.1205,0.1465,0.0685
-0.9215,-1.0265,-0.1045,0.974,-0.409,-0.5655,-0.4545,-0.392,-0.3705,-0.621,-0.5085,-0.4325,-0.1175,0.146,0.0685
-0.9265,-1.026,-0.099,0.9765,-0.414,-0.5625,-0.4525,-0.39,-0.368,-0.6185,-0.506,-0.43,-0.1155,0.1445,0.0605
-0.9335,-1.036,-0.1025,0.9845,-0.416,-0.569,-0.4535,-0.388,-0.366,-0.6195,-0.508,-0.433,-0.1155,0.137,0.065
-0.9245,-1.0245,-0.0995,0.974,-0.413,-0.562,-0.458,-0.3895,-0.368,-0.621,-0.508,-0.434,-0.1165,0.141,0.0625
-0.9275,-1.0155,-0.0875,0.971,-0.4205,-0.5515,-0.4525,-0.388,-0.367,-0.621,-0.503,-0.4295,-0.116,0.1445,0.054
-0.9345,-1.031,-0.096,0.9825,-0.4195,-0.5635,-0.4485,-0.3855,-0.3655,-0.6215,-0.504,-0.4295,-0.1165,0.132,0.062
-0.931,-1.0365,-0.1055,0.9835,-0.413,-0.571,-0.457,-0.391,-0.369,-0.6215,-0.5075,-0.4325,-0.117,0.1295,0.0705
-0.9305,-1.033,-0.102,0.9815,-0.4145,-0.5675,-0.4535,-0.39,-0.3685,-0.6215,-0.5055,-0.4315,-0.124,0.137,0.0715
-0.931,-1.0325,-0.101,0.9815,-0.415,-0.5665,-0.4475,-0.3875,-0.3675,-0.621,-0.507,-0.4325,-0.126,0.135,0.065
-0.9335,-1.034,-0.1,0.9835,-0.417,-0.567,-0.448,-0.387,-0.367,-0.619,-0.5075,-0.4335,-0.125,0.133,0.061
-0.9445,-1.0375,-0.0925,0.991,-0.4265,-0.565,-0.4435,-0.3825,-0.3635,-0.6155,-0.51,-0.436,-0.131,0.137,0.066
-0.945,-1.0345,-0.089,0.9895,-0.4285,-0.5615,-0.4445,-0.3845,-0.3645,-0.6095,-0.5085,-0.435,-0.13,0.1415,0.0685
-0.9345,-1.0305,-0.0955,0.9825,-0.42,-0.563,-0.442,-0.3795,-0.3595,-0.6065,-0.506,-0.433,-0.1275,0.1385,0.0595
-0.9365,-1.0375,-0.1005,0.9865,-0.418,-0.569,-0.4325,-0.366,-0.3515,-0.6055,-0.509,-0.437,-0.127,0.133,0.054
-0.939,-1.0465,-0.107,0.9925,-0.416,-0.577,-0.4225,-0.353,-0.3415,-0.603,-0.51,-0.44,-0.129,0.125,0.051
-0.943,-1.055,-0.1115,0.999,-0.416,-0.5835,-0.405,-0.3245,-0.324,-0.6075,-0.5195,-0.4475,-0.1325,0.118,0.0395
-0.947,-1.0665,-0.1185,1.0065,-0.4145,-0.5925,-0.3785,-0.282,-0.302,-0.612,-0.53,-0.458,-0.1435,0.1095,0.026
-0.9455,-1.078,-0.1315,1.0115,-0.4075,-0.605,-0.345,-0.2275,-0.2665,-0.6135,-0.5465,-0.4735,-0.1585,0.095,0.004
-0.9505,-1.0955,-0.1445,1.0225,-0.4035,-0.62,-0.3065,-0.1675,-0.2285,-0.6205,-0.5715,-0.495,-0.1725,0.0795,-0.0125
-0.954,-1.111,-0.1565,1.032,-0.399,-0.6335,-0.2605,-0.1005,-0.183,-0.6225,-0.5945,-0.5165,-0.189,0.0645,-0.024
-0.9555,-1.118,-0.162,1.0365,-0.397,-0.64,-0.2135,-0.0235,-0.119,-0.612,-0.6135,-0.535,-0.198,0.0595,-0.0475
-0.9695,-1.1335,-0.1635,1.0515,-0.403,-0.6485,-0.1625,0.0625,-0.0425,-0.6015,-0.6365,-0.559,-0.215,0.059,-0.0815
-0.978,-1.1445,-0.166,1.061,-0.406,-0.6555,-0.1135,0.1405,0.027,-0.589,-0.6565,-0.5795,-0.23,0.0515,-0.1135
-0.978,-1.1385,-0.16,1.058,-0.4095,-0.6495,-0.0835,0.189,0.078,-0.5745,-0.6715,-0.5935,-0.2405,0.05,-0.1535
-0.974,-1.1345,-0.16,1.054,-0.407,-0.6475,-0.0665,0.224,0.121,-0.557,-0.678,-0.6025,-0.245,0.0515,-0.184
-0.9615,-1.1245,-0.162,1.043,-0.4,-0.6435,-0.058,0.243,0.1495,-0.5315,-0.6695,-0.5975,-0.237,0.052,-0.195
-0.9605,-1.1215,-0.1605,1.0405,-0.4,-0.641,-0.044,0.269,0.1795,-0.5135,-0.67,-0.6005,-0.236,0.045,-0.2175
-0.95,-1.1035,-0.153,1.0265,-0.399,-0.628,-0.0385,0.292,0.2155,-0.4775,-0.655,-0.5935,-0.225,0.0535,-0.234
-0.9315,-1.0655,-0.1335,0.9985,-0.3995,-0.5995,-0.0475,0.3045,0.254,-0.4225,-0.6205,-0.5695,-0.2005,0.0815,-0.248
-0.9215,-1.044,-0.122,0.9825,-0.4,-0.583,-0.051,0.318,0.2815,-0.3795,-0.596,-0.555,-0.184,0.095,-0.2805
-0.9215,-1.0225,-0.101,0.9715,-0.4105,-0.562,-0.064,0.3015,0.276,-0.359,-0.587,-0.5485,-0.176,0.116,-0.3
-0.9195,-0.991,-0.071,0.955,-0.4245,-0.531,-0.0665,0.314,0.3125,-0.31,-0.5655,-0.538,-0.1635,0.15,-0.329
-0.907,-0.9505,-0.043,0.9285,-0.432,-0.497,-0.058,0.356,0.3895,-0.2185,-0.5155,-0.5135,-0.1385,0.184,-0.3845
-0.882,-0.905,-0.0225,0.8935,-0.43,-0.464,-0.078,0.3575,0.4415,-0.127,-0.446,-0.4715,-0.095,0.208,-0.4215
-0.848,-0.8445,0.0045,0.846,-0.4265,-0.42,-0.1095,0.338,0.5105,-0.0155,-0.3705,-0.4245,-0.047,0.2555,-0.4625
-0.8195,-0.7855,0.0345,0.8025,-0.427,-0.3755,-0.1445,0.312,0.5885,0.103,-0.295,-0.3795,0.0015,0.3155,-0.497
-0.7835,-0.7275,0.0565,0.7555,-0.4205,-0.3355,-0.204,0.2585,0.637,0.224,-0.204,-0.323,0.063,0.354,-0.512
-0.7535,-0.652,0.102,0.7025,-0.428,-0.275,-0.262,0.1945,0.671,0.33,-0.1165,-0.2655,0.118,0.413,-0.5375
-0.7335,-0.577,0.157,0.655,-0.4455,-0.21,-0.311,0.1045,0.6895,0.416,-0.0355,-0.2105,0.1655,0.475,-0.5795
-0.717,-0.498,0.2195,0.6075,-0.4685,-0.1395,-0.359,-0.011,0.681,0.507,0.0565,-0.151,0.2125,0.541,-0.636
-0.703,-0.4145,0.289,0.5585,-0.496,-0.063,-0.403,-0.125,0.6545,0.5965,0.1615,-0.0815,0.2705,0.617,-0.678
-0.676,-0.335,0.3415,0.5055,-0.509,0.003,-0.509,-0.3295,0.548,0.6775,0.2815,0.0025,0.345,0.676,-0.6815
-0.6575,-0.2635,0.3945,0.4605,-0.526,0.0655,-0.6265,-0.56,0.392,0.771,0.4155,0.091,0.422,0.7345,-0.6685
-0.6425,-0.2065,0.4365,0.4245,-0.5395,0.115,-0.689,-0.731,0.2475,0.8665,0.541,0.1695,0.489,0.788,-0.6655
-0.618,-0.16,0.459,0.389,-0.5385,0.1495,-0.7435,-0.912,0.0695,0.933,0.656,0.2415,0.556,0.8305,-0.6455
-0.584,-0.116,0.468,0.35,-0.5265,0.176,-0.788,-1.062,-0.047,1.0535,0.807,0.3345,0.6475,0.861,-0.627
-0.564,-0.089,0.4755,0.326,-0.52,0.1935,-0.8465,-1.2255,-0.185,1.144,0.932,0.4115,0.719,0.8825,-0.6055
-0.5675,-0.0775,0.49,0.3225,-0.529,0.206,-0.8825,-1.3905,-0.3635,1.173,1.014,0.463,0.753,0.9015,-0.594
-0.5685,-0.055,0.514,0.3115,-0.5415,0.2295,-0.9215,-1.529,-0.48,1.2535,1.121,0.529,0.802,0.9375,-0.5835
-0.567,-0.0165,0.551,0.2915,-0.559,0.267,-1.0005,-1.7185,-0.6515,1.315,1.2315,0.6,0.8565,0.9865,-0.54
-0.565,0.0235,0.589,0.2705,-0.577,0.3065,-1.0665,-1.9105,-0.8745,1.32,1.316,0.6625,0.902,1.0295,-0.4995
-0.5655,0.056,0.622,0.2545,-0.594,0.339,-1.143,-2.0925,-1.113,1.2985,1.387,0.722,0.9485,1.0695,-0.438
-0.546,0.09,0.6365,0.228,-0.5915,0.363,-1.241,-2.284,-1.333,1.306,1.4755,0.7955,1.0035,1.093,-0.366
-0.526,0.122,0.6485,0.202,-0.5875,0.385,-1.325,-2.4415,-1.509,1.3145,1.5415,0.8525,1.045,1.116,-0.295
-0.5275,0.1655,0.6935,0.1805,-0.611,0.4295,-1.4035,-2.6085,-1.707,1.2805,1.583,0.897,1.066,1.1645,-0.219
-0.5255,0.215,0.741,0.155,-0.6335,0.478,-1.505,-2.787,-1.901,1.2355,1.612,0.9375,1.0825,1.2085,-0.1445
-0.514,0.235,0.7495,0.1395,-0.632,0.4925,-1.5555,-2.8885,-2.0,1.2445,1.638,0.9685,1.1025,1.231,-0.0895
-0.5095,0.2695,0.7795,0.12,-0.6445,0.5245,-1.5875,-2.9845,-2.1,1.227,1.648,0.994,1.1085,1.2725,-0.042
-0.5235,0.2895,0.813,0.117,-0.6685,0.551,-1.624,-3.096,-2.2405,1.128,1.605,0.9935,1.0845,1.3005,0.036
-0.551,0.297,0.8485,0.1265,-0.7,0.573,-1.646,-3.197,-2.3665,1.022,1.5475,0.978,1.044,1.3275,0.091
-0.581,0.3355,0.917,0.1225,-0.7495,0.6265,-1.713,-3.315,-2.4985,0.8815,1.48,0.963,0.994,1.378,0.1235
-0.607,0.374,0.9815,0.116,-0.7945,0.678,-1.7925,-3.435,-2.6,0.758,1.415,0.9485,0.9515,1.423,0.1605
-0.6525,0.3695,1.022,0.141,-0.8375,0.696,-1.831,-3.517,-2.6855,0.6525,1.3315,0.9095,0.8895,1.434,0.1985
-0.7075,0.29,0.998,0.2085,-0.853,0.644,-1.8165,-3.525,-2.728,0.54,1.2255,0.8475,0.8145,1.379,0.255
-0.755,0.1955,0.9505,0.2795,-0.853,0.573,-1.8075,-3.544,-2.791,0.378,1.115,0.7845,0.7435,1.305,0.3295
-0.8035,0.102,0.906,0.3505,-0.855,0.504,-1.808,-3.556,-2.881,0.167,0.994,0.722,0.668,1.228,0.4145
-0.868,0.0155,0.884,0.426,-0.8765,0.45,-1.8045,-3.5485,-2.96,-0.057,0.8645,0.653,0.582,1.172,0.5185
-0.9435,-0.05,0.8945,0.4965,-0.919,0.422,-1.8125,-3.5485,-3.0445,-0.3165,0.7055,0.5735,0.477,1.1435,0.619
-1.007,-0.1195,0.888,0.563,-0.9475,0.384,-1.843,-3.562,-3.1605,-0.6835,0.511,0.4895,0.365,1.09,0.7315
-1.087,-0.1895,0.898,0.638,-0.993,0.3545,-1.886,-3.612,-3.3585,-1.201,0.247,0.3755,0.208,1.043,0.8675
-1.153,-0.236,0.917,0.6945,-1.0355,0.3405,-1.9425,-3.64,-3.5205,-1.7175,-0.036,0.258,0.0535,1.0175,1.006
-1.171,-0.294,0.8775,0.7325,-1.0245,0.2915,-1.9965,-3.616,-3.5595,-2.03,-0.2335,0.1755,-0.035,0.963,1.1165
-1.186,-0.3455,0.841,0.7655,-1.014,0.2475,-2.0385,-3.5385,-3.494,-2.146,-0.364,0.1095,-0.0955,0.936,1.1725
-1.198,-0.3685,0.8295,0.783,-1.014,0.2305,-2.0915,-3.451,-3.41,-2.235,-0.4935,0.0485,-0.1495,0.9195,1.2195
-1.183,-0.4085,0.7755,0.7955,-0.9795,0.1835,-2.122,-3.343,-3.291,-2.238,-0.5705,0.0055,-0.177,0.8675,1.242
-1.1585,-0.427,0.732,0.7925,-0.9455,0.1525,-2.127,-3.2245,-3.1515,-2.1745,-0.5785,-0.0105,-0.173,0.844,1.23
-1.155,-0.438,0.7175,0.796,-0.9365,0.1395,-2.119,-3.1095,-3.027,-2.132,-0.598,-0.0385,-0.1865,0.8295,1.205
-1.1565,-0.4675,0.6895,0.812,-0.9235,0.111,-2.098,-2.981,-2.888,-2.073,-0.629,-0.081,-0.208,0.7995,1.169
-1.1595,-0.517,0.643,0.838,-0.9015,0.063,-2.06,-2.855,-2.756,-2.0205,-0.6635,-0.1265,-0.2325,0.753,1.1415
-1.167,-0.58,0.5875,0.873,-0.8775,0.0035,-1.999,-2.7095,-2.6155,-1.9675,-0.699,-0.176,-0.253,0.699,1.1135
-1.1575,-0.6165,0.5415,0.8865,-0.8495,-0.0375,-1.9265,-2.549,-2.463,-1.9045,-0.716,-0.209,-0.257,0.665,1.0795
-1.149,-0.629,0.52,0.8885,-0.835,-0.0545,-1.8645,-2.4145,-2.333,-1.848,-0.732,-0.2395,-0.2715,0.652,1.029
-1.15,-0.6525,0.498,0.901,-0.8245,-0.077,-1.8055,-2.299,-2.217,-1.7975,-0.759,-0.2815,-0.296,0.625,0.9755
-1.1605,-0.674,0.4865,0.917,-0.8235,-0.094,-1.7595,-2.2045,-2.1205,-1.753,-0.7855,-0.3225,-0.321,0.611,0.937
-1.177,-0.6925,0.485,0.9345,-0.8315,-0.1035,-1.703,-2.1075,-2.021,-1.706,-0.8155,-0.3705,-0.35,0.6075,0.8885
-1.1815,-0.718,0.4645,0.9495,-0.8235,-0.127,-1.6165,-1.9865,-1.9065,-1.652,-0.85,-0.4235,-0.384,0.5835,0.833
-1.176,-0.733,0.4435,0.954,-0.81,-0.1445,-1.543,-1.876,-1.8015,-1.593,-0.856,-0.4475,-0.3915,0.565,0.788
-1.172,-0.755,0.4175,0.9635,-0.795,-0.169,-1.4705,-1.763,-1.69,-1.525,-0.8405,-0.457,-0.3795,0.5405,0.7425
-1.1705,-0.775,0.396,0.9725,-0.7835,-0.1895,-1.4025,-1.6715,-1.608,-1.483,-0.8415,-0.477,-0.388,0.5095,0.696
-1.1645,-0.789,0.376,0.977,-0.7705,-0.2065,-1.34,-1.593,-1.5375,-1.4475,-0.8375,-0.49,-0.3935,0.489,0.6585
-1.148,-0.799,0.3495,0.9735,-0.749,-0.225,-1.287,-1.5105,-1.4555,-1.393,-0.817,-0.489,-0.3755,0.4735,0.6175
-1.1315,-0.8095,0.3225,0.97,-0.727,-0.2435,-1.2395,-1.434,-1.3765,-1.342,-0.8025,-0.4885,-0.362,0.457,0.576
-1.117,-0.83,0.2875,0.9735,-0.7025,-0.2715,-1.1785,-1.342,-1.2815,-1.278,-0.7795,-0.486,-0.349,0.435,0.53
-1.0945,-0.8475,0.2475,0.9705,-0.671,-0.3,-1.116,-1.246,-1.1855,-1.212,-0.749,-0.4795,-0.3265,0.411,0.495
-1.0835,-0.8655,0.2185,0.974,-0.6515,-0.3235,-1.0665,-1.1695,-1.1105,-1.162,-0.732,-0.478,-0.314,0.3925,0.468
-1.0855,-0.897,0.1895,0.991,-0.6375,-0.3535,-1.0165,-1.095,-1.0375,-1.116,-0.726,-0.492,-0.3125,0.354,0.4195
-1.0785,-0.9195,0.1595,0.9985,-0.6195,-0.38,-0.959,-1.015,-0.9595,-1.064,-0.7175,-0.5065,-0.311,0.3195,0.381
-1.0765,-0.944,0.1335,1.01,-0.6055,-0.405,-0.9035,-0.936,-0.8795,-1.0075,-0.7015,-0.5125,-0.303,0.307,0.3455
-1.074,-0.9745,0.1,1.024,-0.587,-0.437,-0.8515,-0.857,-0.7965,-0.954,-0.682,-0.515,-0.2845,0.285,0.3065
-1.0475,-0.984,0.064,1.0155,-0.556,-0.46,-0.7895,-0.769,-0.705,-0.888,-0.6485,-0.4995,-0.245,0.2595,0.2645
-1.0195,-1.0,0.02,1.0095,-0.52,-0.49,-0.722,-0.6765,-0.6085,-0.8145,-0.611,-0.4835,-0.2095,0.2335,0.219
-1.0085,-1.0145,-0.0055,1.011,-0.5015,-0.51,-0.6845,-0.6215,-0.551,-0.7745,-0.5895,-0.4755,-0.192,0.217,0.185
-1.0065,-1.024,-0.017,1.015,-0.495,-0.5205,-0.655,-0.583,-0.513,-0.7505,-0.5785,-0.4705,-0.1765,0.209,0.163
-1.001,-1.0305,-0.029,1.0155,-0.486,-0.53,-0.6155,-0.5385,-0.467,-0.72,-0.565,-0.4665,-0.163,0.2015,0.1455
-0.9955,-1.0355,-0.0395,1.0155,-0.478,-0.5375,-0.5915,-0.5075,-0.4355,-0.6995,-0.5585,-0.464,-0.1525,0.186,0.123
-0.9865,-1.041,-0.054,1.0135,-0.4665,-0.5475,-0.5745,-0.481,-0.4105,-0.6845,-0.5515,-0.4615,-0.1465,0.173,0.1135
-0.978,-1.036,-0.0575,1.007,-0.4605,-0.5465,-0.5565,-0.4575,-0.388,-0.668,-0.544,-0.457,-0.1445,0.1695,0.1045
-0.9795,-1.0415,-0.0615,1.01,-0.459,-0.5515,-0.5475,-0.446,-0.375,-0.6615,-0.545,-0.4595,-0.1425,0.164,0.096
-0.977,-1.0545,-0.077,1.0155,-0.45,-0.566,-0.5385,-0.431,-0.3605,-0.653,-0.5425,-0.4595,-0.1385,0.161,0.096
-0.979,-1.069,-0.0895,1.024,-0.445,-0.5795,-0.527,-0.412,-0.344,-0.643,-0.5395,-0.4585,-0.1335,0.157,0.0915
-0.9855,-1.079,-0.0925,1.032,-0.447,-0.5855,-0.519,-0.4,-0.3315,-0.637,-0.5375,-0.4595,-0.133,0.1545,0.086
-0.9865,-1.0845,-0.0975,1.035,-0.445,-0.5905,-0.5095,-0.39,-0.3215,-0.631,-0.5355,-0.4595,-0.131,0.152,0.083
-0.978,-1.08,-0.1015,1.0285,-0.4385,-0.5905,-0.504,-0.381,-0.3125,-0.6245,-0.533,-0.46,-0.122,0.1505,0.0775
-0.9695,-1.077,-0.1075,1.023,-0.4315,-0.592,-0.492,-0.3665,-0.2965,-0.615,-0.5285,-0.4585,-0.1145,0.143,0.0755
-0.97,-1.0835,-0.113,1.0265,-0.4285,-0.5985,-0.4825,-0.3555,-0.284,-0.6065,-0.525,-0.4545,-0.1125,0.137,0.072
-0.977,-1.0875,-0.1095,1.032,-0.434,-0.5985,-0.4825,-0.352,-0.2815,-0.605,-0.5285,-0.456,-0.113,0.14,0.07
-0.9765,-1.0925,-0.1155,1.0345,-0.431,-0.604,-0.478,-0.346,-0.275,-0.6025,-0.5285,-0.4575,-0.1095,0.14,0.0755
-0.969,-1.092,-0.1225,1.03,-0.4235,-0.6075,-0.473,-0.3385,-0.2675,-0.5975,-0.526,-0.461,-0.11,0.142,0.068
-0.9635,-1.0915,-0.1275,1.027,-0.418,-0.6095,-0.4675,-0.331,-0.2625,-0.5945,-0.5255,-0.464,-0.116,0.134,0.056
-0.952,-1.086,-0.1335,1.0185,-0.4095,-0.6095,-0.46,-0.323,-0.251,-0.5865,-0.52,-0.4545,-0.114,0.1255,0.0445
-0.9525,-1.081,-0.128,1.0165,-0.4125,-0.6045,-0.453,-0.3135,-0.2415,-0.5795,-0.5145,-0.4525,-0.1115,0.1255,0.039
-0.963,-1.0905,-0.127,1.0265,-0.4185,-0.6085,-0.451,-0.309,-0.2385,-0.5785,-0.5165,-0.4575,-0.1125,0.1225,0.041
-0.968,-1.093,-0.1245,1.0305,-0.422,-0.6085,-0.4485,-0.3055,-0.2335,-0.5745,-0.5155,-0.4565,-0.114,0.1235,0.0345
-0.9695,-1.0875,-0.1175,1.028,-0.426,-0.6025,-0.446,-0.3025,-0.2275,-0.571,-0.5115,-0.454,-0.1145,0.131,0.0285
-0.9735,-1.091,-0.117,1.032,-0.4285,-0.604,-0.4475,-0.304,-0.226,-0.5725,-0.515,-0.4565,-0.1145,0.1295,0.0245
-0.9815,-1.1025,-0.1205,1.042,-0.4305,-0.6115,-0.448,-0.301,-0.224,-0.571,-0.5175,-0.458,-0.111,0.126,0.0235
-0.9795,-1.1,-0.1205,1.0395,-0.4295,-0.61,-0.444,-0.295,-0.2175,-0.5655,-0.514,-0.4555,-0.112,0.1265,0.018
-0.9745,-1.096,-0.121,1.035,-0.4275,-0.6085,-0.439,-0.29,-0.2105,-0.56,-0.512,-0.455,-0.119,0.1205,0.0105
-0.972,-1.0935,-0.1215,1.0325,-0.4255,-0.6075,-0.4345,-0.2845,-0.204,-0.554,-0.511,-0.454,-0.1155,0.124,0.009
-0.9725,-1.092,-0.119,1.032,-0.4275,-0.6055,-0.4305,-0.2815,-0.199,-0.5505,-0.5105,-0.4545,-0.1155,0.123,0.0035
-0.971,-1.0965,-0.125,1.0335,-0.4235,-0.611,-0.43,-0.2795,-0.1955,-0.549,-0.5095,-0.455,-0.114,0.1145,0.005
-0.9615,-1.0875,-0.125,1.024,-0.4185,-0.606,-0.428,-0.278,-0.192,-0.5445,-0.5065,-0.4525,-0.1105,0.1185,0.0
-0.9615,-1.0825,-0.12,1.022,-0.421,-0.6015,-0.4285,-0.2775,-0.1915,-0.5455,-0.506,-0.4515,-0.111,0.119,-0.005
-0.9625,-1.08,-0.117,1.021,-0.423,-0.5985,-0.4255,-0.2705,-0.185,-0.5415,-0.5,-0.446,-0.1055,0.1205,-0.003
-0.9595,-1.077,-0.1165,1.018,-0.422,-0.5965,-0.419,-0.263,-0.1765,-0.537,-0.4965,-0.4425,-0.1,0.1215,-0.0045
-0.961,-1.0825,-0.121,1.0215,-0.42,-0.602,-0.4215,-0.2675,-0.178,-0.5405,-0.5,-0.448,-0.098,0.118,0.0005
-0.959,-1.083,-0.1235,1.021,-0.418,-0.603,-0.417,-0.2645,-0.1745,-0.539,-0.497,-0.4465,-0.1,0.123,0.0025
-0.957,-1.0835,-0.126,1.02,-0.4155,-0.605,-0.4135,-0.2595,-0.171,-0.5395,-0.497,-0.4465,-0.099,0.122,-0.0055
-0.9605,-1.087,-0.126,1.0235,-0.4175,-0.6065,-0.415,-0.261,-0.171,-0.5385,-0.4985,-0.4465,-0.095,0.12,-0.008
-0.963,-1.0865,-0.123,1.025,-0.4205,-0.605,-0.4085,-0.256,-0.165,-0.534,-0.494,-0.445,-0.094,0.1265,-0.007
-0.952,-1.084,-0.1315,1.018,-0.4105,-0.6075,-0.4075,-0.2525,-0.1595,-0.5295,-0.4905,-0.443,-0.091,0.128,-0.007
-0.945,-1.0825,-0.137,1.0135,-0.404,-0.6095,-0.4085,-0.2525,-0.1575,-0.526,-0.492,-0.4435,-0.09,0.1315,-0.0095
-0.9505,-1.0785,-0.1275,1.014,-0.412,-0.603,-0.408,-0.249,-0.1545,-0.52,-0.491,-0.446,-0.09,0.1385,-0.0155
-0.9525,-1.0745,-0.121,1.013,-0.416,-0.5975,-0.41,-0.2485,-0.1515,-0.5145,-0.4895,-0.444,-0.086,0.133,-0.0135
-0.965,-1.077,-0.112,1.0205,-0.427,-0.5945,-0.412,-0.25,-0.1515,-0.5155,-0.488,-0.443,-0.085,0.1255,-0.0205
-0.9745,-1.0795,-0.105,1.027,-0.435,-0.5925,-0.41,-0.245,-0.146,-0.5125,-0.484,-0.44,-0.0885,0.126,-0.0225
-0.97,-1.0765,-0.106,1.023,-0.432,-0.5915,-0.4105,-0.2435,-0.1425,-0.512,-0.483,-0.4405,-0.094,0.1285,-0.0205
-0.972,-1.08,-0.1075,1.0255,-0.4325,-0.594,-0.412,-0.244,-0.1415,-0.5125,-0.4825,-0.4415,-0.0945,0.132,-0.0225
-0.973,-1.0815,-0.108,1.027,-0.4325,-0.5945,-0.4095,-0.241,-0.1355,-0.5065,-0.4785,-0.438,-0.0935,0.1295,-0.03
-0.967,-1.0725,-0.105,1.0195,-0.431,-0.589,-0.412,-0.239,-0.134,-0.504,-0.4775,-0.4375,-0.095,0.125,-0.038
-0.9625,-1.071,-0.108,1.0165,-0.4275,-0.59,-0.4135,-0.241,-0.1335,-0.504,-0.48,-0.4365,-0.095,0.1255,-0.0425
-0.958,-1.0685,-0.1095,1.013,-0.4245,-0.589,-0.414,-0.241,-0.131,-0.501,-0.4765,-0.4335,-0.093,0.1335,-0.0455
-0.9625,-1.068,-0.105,1.015,-0.429,-0.5865,-0.4155,-0.241,-0.13,-0.501,-0.476,-0.4355,-0.0945,0.139,-0.0405
-0.9605,-1.065,-0.104,1.0125,-0.4285,-0.5845,-0.4085,-0.234,-0.1215,-0.494,-0.47,-0.432,-0.094,0.1315,-0.051
-0.955,-1.065,-0.1095,1.01,-0.423,-0.5875,-0.405,-0.229,-0.116,-0.4875,-0.4655,-0.428,-0.0905,0.134,-0.042
-0.9595,-1.074,-0.114,1.0165,-0.423,-0.594,-0.407,-0.2335,-0.1185,-0.493,-0.4735,-0.4335,-0.096,0.142,-0.025
-0.952,-1.066,-0.1135,1.009,-0.4195,-0.59,-0.411,-0.2335,-0.116,-0.49,-0.4725,-0.434,-0.096,0.1475,-0.0275
-0.945,-1.057,-0.112,1.0005,-0.417,-0.5845,-0.4135,-0.231,-0.1115,-0.4855,-0.469,-0.433,-0.0905,0.1585,-0.0295
-0.947,-1.0635,-0.1165,1.005,-0.4155,-0.59,-0.4145,-0.2305,-0.11,-0.4835,-0.4695,-0.433,-0.0875,0.155,-0.0275
-0.9415,-1.063,-0.1215,1.002,-0.41,-0.5925,-0.4165,-0.232,-0.106,-0.481,-0.467,-0.431,-0.0845,0.148,-0.026
-0.939,-1.059,-0.1195,0.999,-0.41,-0.589,-0.4115,-0.228,-0.1015,-0.4785,-0.4645,-0.4275,-0.0855,0.144,-0.0365
-0.946,-1.0645,-0.118,1.005,-0.414,-0.591,-0.4105,-0.224,-0.099,-0.477,-0.465,-0.4275,-0.0865,0.1395,-0.0405
-0.946,-1.0635,-0.117,1.0045,-0.415,-0.5905,-0.411,-0.2225,-0.094,-0.474,-0.4625,-0.4265,-0.084,0.141,-0.045
-0.956,-1.0665,-0.11,1.011,-0.423,-0.5885,-0.409,-0.22,-0.0895,-0.472,-0.4615,-0.4245,-0.084,0.137,-0.0505
-0.9675,-1.071,-0.103,1.019,-0.4325,-0.587,-0.41,-0.2205,-0.088,-0.4725,-0.462,-0.426,-0.085,0.147,-0.048
-0.959,-1.0645,-0.1045,1.0115,-0.4275,-0.5845,-0.4075,-0.216,-0.0815,-0.4635,-0.458,-0.4245,-0.083,0.1535,-0.0545
-0.9475,-1.053,-0.1045,1.0,-0.422,-0.5785,-0.408,-0.213,-0.0755,-0.457,-0.456,-0.422,-0.079,0.147,-0.0585
-0.948,-1.05,-0.1015,0.9985,-0.4235,-0.5755,-0.4085,-0.212,-0.0715,-0.4555,-0.4535,-0.42,-0.0765,0.1455,-0.0585
-0.9505,-1.0455,-0.0945,0.998,-0.428,-0.57,-0.41,-0.211,-0.066,-0.4535,-0.4525,-0.4195,-0.0755,0.1545,-0.0665
-0.951,-1.0385,-0.087,0.9945,-0.432,-0.563,-0.41,-0.21,-0.0625,-0.4505,-0.45,-0.4175,-0.075,0.1585,-0.073
-0.949,-1.038,-0.0885,0.9935,-0.4305,-0.5635,-0.409,-0.2065,-0.057,-0.4445,-0.4465,-0.4155,-0.0735,0.1565,-0.0755
-0.9455,-1.037,-0.091,0.991,-0.4275,-0.564,-0.411,-0.2065,-0.054,-0.4405,-0.446,-0.416,-0.0705,0.1615,-0.074
-0.956,-1.0375,-0.081,0.9965,-0.4375,-0.5595,-0.414,-0.208,-0.0505,-0.438,-0.4455,-0.417,-0.074,0.1635,-0.0775
-0.955,-1.035,-0.08,0.9945,-0.438,-0.5575,-0.414,-0.2045,-0.043,-0.4335,-0.4425,-0.416,-0.0735,0.171,-0.0755
-0.937,-1.029,-0.0915,0.983,-0.423,-0.5605,-0.408,-0.2,-0.034,-0.4255,-0.437,-0.412,-0.0675,0.17,-0.068
-0.9285,-1.018,-0.0895,0.973,-0.42,-0.5535,-0.408,-0.1975,-0.0255,-0.42,-0.4315,-0.407,-0.0625,0.1685,-0.075
-0.9235,-1.0145,-0.0905,0.969,-0.4165,-0.5525,-0.41,-0.194,-0.0185,-0.414,-0.428,-0.407,-0.0625,0.1715,-0.0815
-0.9245,-1.018,-0.0935,0.971,-0.4155,-0.556,-0.4085,-0.191,-0.0115,-0.4075,-0.4265,-0.408,-0.0615,0.1775,-0.0795
-0.924,-1.017,-0.0925,0.9705,-0.416,-0.555,-0.407,-0.1885,-0.004,-0.4005,-0.4235,-0.4055,-0.057,0.1825,-0.0825
-0.9155,-1.01,-0.094,0.9625,-0.411,-0.5525,-0.407,-0.185,0.004,-0.3945,-0.4225,-0.4045,-0.055,0.174,-0.09
-0.912,-1.005,-0.0925,0.958,-0.41,-0.5485,-0.4075,-0.183,0.01,-0.389,-0.4185,-0.403,-0.048,0.173,-0.09
-0.9165,-1.0045,-0.0875,0.9605,-0.4145,-0.546,-0.4075,-0.18,0.0175,-0.3835,-0.413,-0.4,-0.0475,0.1765,-0.096
-0.9175,-1.001,-0.083,0.959,-0.4175,-0.542,-0.4075,-0.1785,0.025,-0.3795,-0.411,-0.399,-0.047,0.1785,-0.102
-0.9245,-1.0,-0.0745,0.9615,-0.425,-0.537,-0.4075,-0.1775,0.031,-0.3775,-0.41,-0.4,-0.047,0.1805,-0.109
-0.9295,-1.0025,-0.0725,0.9655,-0.4285,-0.5375,-0.41,-0.1765,0.0365,-0.375,-0.41,-0.401,-0.049,0.182,-0.1185
-0.9255,-1.004,-0.078,0.9645,-0.424,-0.541,-0.41,-0.174,0.0435,-0.3695,-0.4065,-0.398,-0.0485,0.1835,-0.1175
-0.9265,-1.002,-0.075,0.964,-0.426,-0.5385,-0.4105,-0.1695,0.052,-0.363,-0.4015,-0.395,-0.048,0.184,-0.121
-0.926,-1.0,-0.0735,0.963,-0.4265,-0.537,-0.407,-0.165,0.062,-0.3535,-0.3955,-0.3925,-0.0455,0.1895,-0.1295
-0.924,-0.994,-0.07,0.9585,-0.427,-0.532,-0.4065,-0.161,0.072,-0.3475,-0.391,-0.389,-0.0445,0.197,-0.126
-0.9155,-0.9855,-0.069,0.95,-0.4235,-0.527,-0.411,-0.158,0.081,-0.3405,-0.388,-0.3865,-0.0395,0.197,-0.1255
-0.908,-0.974,-0.065,0.941,-0.422,-0.5195,-0.4065,-0.1545,0.0905,-0.329,-0.382,-0.3835,-0.038,0.201,-0.1355
-0.909,-0.9725,-0.063,0.9405,-0.4235,-0.5175,-0.408,-0.1535,0.096,-0.3195,-0.38,-0.383,-0.0415,0.2085,-0.137
-0.907,-0.971,-0.0635,0.939,-0.422,-0.5175,-0.416,-0.156,0.102,-0.314,-0.3795,-0.382,-0.0395,0.21,-0.1405
-0.904,-0.962,-0.0575,0.933,-0.4235,-0.51,-0.414,-0.151,0.1145,-0.3075,-0.3735,-0.378,-0.037,0.216,-0.145
-0.8955,-0.9535,-0.0575,0.924,-0.419,-0.5055,-0.4085,-0.1415,0.1305,-0.294,-0.365,-0.371,-0.0355,0.216,-0.151
-0.896,-0.9465,-0.05,0.921,-0.423,-0.4985,-0.4105,-0.1395,0.1395,-0.288,-0.3625,-0.3705,-0.032,0.216,-0.1565
-0.896,-0.9425,-0.046,0.919,-0.425,-0.494,-0.4115,-0.1385,0.1465,-0.282,-0.36,-0.372,-0.027,0.2185,-0.1605
-0.8885,-0.936,-0.047,0.912,-0.421,-0.4915,-0.4115,-0.1355,0.1565,-0.2725,-0.354,-0.3685,-0.0225,0.22,-0.1705
-0.8935,-0.937,-0.043,0.915,-0.4255,-0.49,-0.417,-0.135,0.1635,-0.2665,-0.351,-0.369,-0.0205,0.2245,-0.1765
-0.894,-0.934,-0.04,0.9135,-0.427,-0.487,-0.4205,-0.134,0.1735,-0.257,-0.3455,-0.3665,-0.022,0.23,-0.187
-0.8875,-0.9285,-0.041,0.908,-0.4235,-0.4845,-0.4175,-0.1275,0.188,-0.245,-0.337,-0.359,-0.0165,0.2355,-0.192
-0.8875,-0.9265,-0.0385,0.9065,-0.425,-0.4825,-0.4165,-0.1215,0.2,-0.234,-0.3305,-0.3565,-0.0135,0.2425,-0.195
-0.886,-0.919,-0.032,0.902,-0.427,-0.4755,-0.42,-0.1195,0.21,-0.225,-0.3265,-0.355,-0.0105,0.2485,-0.2005
-0.8845,-0.9045,-0.0195,0.894,-0.4325,-0.462,-0.419,-0.114,0.223,-0.214,-0.32,-0.351,-0.005,0.2525,-0.205
-0.8925,-0.8925,0.0005,0.892,-0.4465,-0.446,-0.4205,-0.1135,0.2325,-0.203,-0.3145,-0.3485,-0.0055,0.2615,-0.2215
-0.892,-0.892,0.0005,0.8915,-0.4465,-0.446,-0.423,-0.11,0.243,-0.1925,-0.3075,-0.345,0.002,0.262,-0.229
-0.8855,-0.8835,0.0025,0.884,-0.444,-0.4405,-0.425,-0.104,0.256,-0.1795,-0.301,-0.3405,0.0115,0.2645,-0.2275
-0.885,-0.8805,0.005,0.8825,-0.4455,-0.438,-0.425,-0.101,0.268,-0.1665,-0.2945,-0.336,0.016,0.268,-0.229
-0.8845,-0.8765,0.0085,0.88,-0.4465,-0.434,-0.4275,-0.097,0.2795,-0.154,-0.2865,-0.331,0.0235,0.2665,-0.2395
-0.8805,-0.8635,0.018,0.8715,-0.4495,-0.4225,-0.4315,-0.0945,0.289,-0.1435,-0.282,-0.33,0.0265,0.2675,-0.255
-0.8785,-0.8555,0.0235,0.8665,-0.4515,-0.416,-0.428,-0.0945,0.297,-0.1345,-0.279,-0.3325,0.03,0.27,-0.263
-0.872,-0.8425,0.03,0.857,-0.451,-0.406,-0.431,-0.0925,0.3095,-0.12,-0.269,-0.3265,0.038,0.2815,-0.273
-0.8655,-0.8355,0.03,0.85,-0.448,-0.403,-0.434,-0.0885,0.32,-0.1065,-0.2585,-0.3195,0.04,0.288,-0.275
-0.8645,-0.827,0.038,0.8455,-0.4515,-0.3945,-0.437,-0.087,0.3295,-0.0955,-0.253,-0.3175,0.0425,0.3025,-0.274
-0.8605,-0.8245,0.037,0.842,-0.449,-0.3935,-0.4425,-0.0815,0.345,-0.0815,-0.2445,-0.3135,0.046,0.3035,-0.278
-0.8645,-0.825,0.04,0.8445,-0.4525,-0.3925,-0.443,-0.0795,0.3545,-0.0725,-0.24,-0.313,0.048,0.2995,-0.2835
-0.8615,-0.8125,0.0495,0.837,-0.456,-0.3815,-0.4405,-0.0765,0.367,-0.058,-0.232,-0.307,0.053,0.3115,-0.291
-0.8535,-0.8005,0.0535,0.8265,-0.4535,-0.3735,-0.445,-0.073,0.379,-0.044,-0.22,-0.301,0.059,0.3195,-0.3025
-0.8485,-0.792,0.0575,0.82,-0.453,-0.367,-0.451,-0.0735,0.3865,-0.0325,-0.211,-0.2965,0.0635,0.327,-0.31
-0.846,-0.7935,0.053,0.8195,-0.4495,-0.3705,-0.451,-0.07,0.3965,-0.021,-0.2065,-0.295,0.067,0.3245,-0.3055
-0.8445,-0.79,0.055,0.817,-0.45,-0.3675,-0.4525,-0.067,0.4055,-0.0105,-0.205,-0.2945,0.068,0.3335,-0.307
-0.8405,-0.7725,0.0685,0.806,-0.4545,-0.352,-0.46,-0.0655,0.417,0.004,-0.195,-0.29,0.071,0.341,-0.3255
-0.838,-0.763,0.0755,0.8,-0.457,-0.3435,-0.461,-0.062,0.4275,0.019,-0.184,-0.2845,0.081,0.343,-0.3335
-0.8305,-0.752,0.0785,0.791,-0.4545,-0.337,-0.463,-0.0595,0.4375,0.034,-0.174,-0.2765,0.0925,0.3595,-0.329
-0.8305,-0.74,0.091,0.7855,-0.461,-0.3245,-0.467,-0.0585,0.446,0.0455,-0.1655,-0.2725,0.095,0.3795,-0.3265
-0.8315,-0.7365,0.0955,0.784,-0.464,-0.3205,-0.464,-0.0565,0.456,0.0595,-0.157,-0.27,0.0935,0.3825,-0.325
-0.8235,-0.725,0.099,0.774,-0.4615,-0.313,-0.469,-0.054,0.465,0.074,-0.1475,-0.264,0.0995,0.3745,-0.332
-0.8265,-0.7235,0.1035,0.7745,-0.465,-0.31,-0.4735,-0.053,0.471,0.0855,-0.139,-0.2595,0.1095,0.386,-0.3325
-0.8235,-0.716,0.108,0.7695,-0.466,-0.304,-0.477,-0.0495,0.482,0.0995,-0.1275,-0.252,0.1145,0.3985,-0.339
-0.8195,-0.6985,0.1215,0.7585,-0.471,-0.288,-0.4745,-0.044,0.4905,0.115,-0.1165,-0.2455,0.116,0.407,-0.3535
-0.8175,-0.6885,0.1295,0.753,-0.474,-0.2795,-0.474,-0.044,0.497,0.1275,-0.11,-0.243,0.121,0.4175,-0.3555
-0.8155,-0.682,0.1345,0.7485,-0.4755,-0.274,-0.4855,-0.0465,0.5025,0.136,-0.1035,-0.2385,0.129,0.425,-0.359
-0.8085,-0.6785,0.1305,0.743,-0.4695,-0.274,-0.4865,-0.0475,0.507,0.148,-0.095,-0.234,0.1355,0.4265,-0.363
-0.794,-0.665,0.1295,0.729,-0.462,-0.2675,-0.487,-0.044,0.516,0.1595,-0.084,-0.2285,0.139,0.4315,-0.37
-0.7955,-0.6605,0.1355,0.7275,-0.4655,-0.2625,-0.489,-0.04,0.5225,0.167,-0.077,-0.2225,0.14,0.4395,-0.374
-0.793,-0.6555,0.138,0.724,-0.466,-0.2585,-0.4905,-0.038,0.528,0.1755,-0.07,-0.2185,0.1415,0.443,-0.3755
-0.797,-0.646,0.151,0.721,-0.474,-0.2475,-0.4925,-0.0365,0.5325,0.1835,-0.0615,-0.213,0.146,0.4495,-0.381
-0.8035,-0.6445,0.1595,0.7235,-0.4815,-0.2425,-0.4935,-0.0375,0.535,0.188,-0.056,-0.2105,0.148,0.455,-0.3865
-0.7985,-0.6385,0.1605,0.7185,-0.48,-0.239,-0.4975,-0.039,0.5375,0.191,-0.05,-0.2095,0.1485,0.457,-0.392
-0.797,-0.6375,0.16,0.717,-0.4785,-0.239,-0.5,-0.0395,0.539,0.1985,-0.044,-0.205,0.152,0.4585,-0.3895
-0.7945,-0.6325,0.1625,0.7135,-0.4785,-0.235,-0.5025,-0.0395,0.5415,0.206,-0.038,-0.2,0.1585,0.466,-0.394
-0.7935,-0.6265,0.167,0.71,-0.4805,-0.2295,-0.5095,-0.0405,0.5435,0.2135,-0.034,-0.198,0.165,0.4735,-0.3975
-0.791,-0.6245,0.167,0.7075,-0.4795,-0.2285,-0.5115,-0.0405,0.545,0.221,-0.027,-0.193,0.172,0.469,-0.395
-0.79,-0.622,0.1685,0.706,-0.4795,-0.2265,-0.5095,-0.039,0.545,0.228,-0.0225,-0.1895,0.1775,0.4705,-0.397
-0.7975,-0.623,0.175,0.71,-0.4865,-0.224,-0.515,-0.042,0.544,0.233,-0.0205,-0.1895,0.173,0.479,-0.399
-0.791,-0.6145,0.1765,0.7025,-0.484,-0.219,-0.5125,-0.042,0.547,0.238,-0.013,-0.1845,0.1715,0.481,-0.4045
-0.7845,-0.6045,0.1805,0.6945,-0.4825,-0.212,-0.5145,-0.0415,0.546,0.2415,-0.006,-0.1785,0.1765,0.4825,-0.4085
-0.7865,-0.6045,0.183,0.695,-0.485,-0.2105,-0.5155,-0.0425,0.544,0.243,0.0,-0.174,0.182,0.484,-0.4065
-0.7845,-0.6015,0.183,0.693,-0.484,-0.209,-0.514,-0.042,0.544,0.2465,0.0035,-0.173,0.1835,0.4965,-0.4
-0.7855,-0.5935,0.1925,0.6895,-0.4895,-0.2005,-0.519,-0.0455,0.5395,0.247,0.006,-0.17,0.1865,0.4995,-0.41
-0.7825,-0.59,0.193,0.686,-0.488,-0.1985,-0.5195,-0.048,0.534,0.2445,0.0085,-0.1695,0.19,0.485,-0.4135
-0.777,-0.5835,0.194,0.68,-0.4855,-0.195,-0.5235,-0.0515,0.528,0.244,0.01,-0.169,0.192,0.4925,-0.404
-0.772,-0.5735,0.199,0.6725,-0.486,-0.1875,-0.52,-0.049,0.53,0.2495,0.0165,-0.1585,0.1985,0.5015,-0.4025
-0.7715,-0.5695,0.2025,0.67,-0.487,-0.1835,-0.515,-0.045,0.529,0.2505,0.0175,-0.16,0.1955,0.4985,-0.402
-0.7675,-0.5665,0.2015,0.6665,-0.4845,-0.1825,-0.5165,-0.047,0.5205,0.2465,0.018,-0.162,0.195,0.495,-0.405
-0.765,-0.57,0.195,0.6675,-0.4805,-0.1875,-0.5165,-0.0495,0.516,0.2465,0.023,-0.1555,0.2,0.491,-0.4015
-0.766,-0.571,0.1955,0.6685,-0.481,-0.188,-0.52,-0.0535,0.5085,0.2425,0.022,-0.1555,0.204,0.4945,-0.396
-0.7625,-0.5655,0.1975,0.6635,-0.4805,-0.184,-0.5245,-0.0575,0.4995,0.2375,0.0215,-0.157,0.205,0.496,-0.3965
-0.7675,-0.5755,0.1925,0.671,-0.48,-0.1915,-0.5215,-0.059,0.493,0.2335,0.0215,-0.156,0.2,0.498,-0.3885
-0.7685,-0.5855,0.1835,0.677,-0.4765,-0.201,-0.5205,-0.059,0.4865,0.231,0.0225,-0.1545,0.2025,0.4925,-0.386
-0.761,-0.5805,0.181,0.6705,-0.4715,-0.2,-0.5215,-0.059,0.4795,0.227,0.024,-0.1535,0.206,0.4855,-0.3915
-0.7675,-0.58,0.188,0.6735,-0.478,-0.196,-0.5185,-0.0605,0.4715,0.221,0.021,-0.155,0.2025,0.4885,-0.389
-0.778,-0.583,0.1955,0.6805,-0.487,-0.1935,-0.5185,-0.0605,0.4645,0.217,0.021,-0.155,0.2,0.482,-0.3795
-0.787,-0.5925,0.1945,0.6895,-0.491,-0.199,-0.5255,-0.067,0.45,0.207,0.0145,-0.1615,0.198,0.4845,-0.3745
-0.7915,-0.6005,0.1915,0.696,-0.4915,-0.2045,-0.531,-0.0755,0.4335,0.194,0.006,-0.169,0.191,0.489,-0.3755
-0.79,-0.604,0.1865,0.697,-0.4885,-0.209,-0.5285,-0.073,0.4275,0.1895,0.0055,-0.166,0.185,0.486,-0.365
-0.7905,-0.603,0.188,0.6965,-0.4895,-0.2075,-0.5235,-0.073,0.4185,0.1835,0.0045,-0.1665,0.184,0.492,-0.3605
-0.791,-0.6005,0.191,0.6955,-0.491,-0.205,-0.517,-0.074,0.409,0.1765,0.0025,-0.168,0.1805,0.4855,-0.363
-0.7865,-0.603,0.184,0.6945,-0.4855,-0.2095,-0.513,-0.074,0.4,0.169,-0.0015,-0.169,0.1775,0.4735,-0.349
-0.778,-0.595,0.183,0.6865,-0.4805,-0.206,-0.511,-0.0725,0.3915,0.1625,-0.003,-0.167,0.181,0.471,-0.3475
-0.7825,-0.6005,0.1825,0.6915,-0.483,-0.209,-0.5115,-0.0755,0.3785,0.1515,-0.0105,-0.171,0.177,0.467,-0.3505
-0.793,-0.618,0.1755,0.7055,-0.4845,-0.2215,-0.511,-0.0805,0.3615,0.1365,-0.022,-0.179,0.167,0.456,-0.3405
-0.79,-0.619,0.171,0.7045,-0.4805,-0.224,-0.505,-0.0795,0.352,0.13,-0.0225,-0.1755,0.1675,0.456,-0.336
-0.7825,-0.6205,0.162,0.7015,-0.4725,-0.229,-0.4995,-0.0815,0.3405,0.12,-0.027,-0.176,0.168,0.461,-0.3295
-0.7845,-0.625,0.16,0.7045,-0.4725,-0.233,-0.5015,-0.0885,0.3225,0.1005,-0.0385,-0.183,0.1615,0.453,-0.3275
-0.785,-0.6395,0.146,0.712,-0.466,-0.247,-0.501,-0.0935,0.3055,0.0815,-0.0485,-0.1895,0.1565,0.4435,-0.3155
-0.788,-0.6595,0.129,0.7235,-0.459,-0.2655,-0.498,-0.097,0.2885,0.0625,-0.0595,-0.195,0.152,0.4335,-0.3005
-0.7955,-0.663,0.1325,0.729,-0.4645,-0.2655,-0.4975,-0.102,0.2705,0.0435,-0.0705,-0.2015,0.143,0.4295,-0.302
-0.798,-0.6745,0.124,0.736,-0.4615,-0.2755,-0.4915,-0.1045,0.254,0.0285,-0.078,-0.2045,0.139,0.421,-0.298
-0.7995,-0.687,0.113,0.7435,-0.457,-0.287,-0.489,-0.1085,0.2365,0.011,-0.0865,-0.2075,0.138,0.411,-0.282
-0.795,-0.69,0.1055,0.7425,-0.4505,-0.2925,-0.4885,-0.1095,0.223,-0.0035,-0.0925,-0.2075,0.1345,0.413,-0.266
-0.7965,-0.6965,0.1,0.746,-0.4485,-0.298,-0.483,-0.109,0.209,-0.017,-0.0985,-0.209,0.1295,0.4005,-0.259
-0.804,-0.705,0.0995,0.7545,-0.452,-0.3025,-0.4795,-0.114,0.193,-0.0315,-0.1085,-0.215,0.1215,0.3855,-0.254
-0.809,-0.7175,0.092,0.763,-0.4505,-0.313,-0.4795,-0.1215,0.174,-0.0485,-0.1205,-0.221,0.114,0.382,-0.246
-0.807,-0.7265,0.081,0.7665,-0.4445,-0.3225,-0.48,-0.127,0.156,-0.07,-0.1315,-0.2275,0.107,0.367,-0.236
-0.809,-0.736,0.0735,0.7725,-0.4415,-0.331,-0.4755,-0.13,0.142,-0.0885,-0.142,-0.231,0.1005,0.35,-0.233
-0.8205,-0.743,0.078,0.7815,-0.4495,-0.3325,-0.473,-0.137,0.1235,-0.1065,-0.153,-0.2375,0.093,0.356,-0.227
-0.8275,-0.749,0.079,0.788,-0.4535,-0.335,-0.474,-0.142,0.1075,-0.1215,-0.16,-0.2405,0.089,0.358,-0.2195
-0.8215,-0.7565,0.0655,0.789,-0.444,-0.3455,-0.47,-0.147,0.092,-0.138,-0.1695,-0.242,0.087,0.348,-0.2115
-0.82,-0.766,0.0545,0.7925,-0.4375,-0.3555,-0.465,-0.153,0.0765,-0.155,-0.1825,-0.249,0.082,0.332,-0.2005
-0.838,-0.7875,0.051,0.8125,-0.4445,-0.3685,-0.4685,-0.1645,0.0565,-0.176,-0.1965,-0.2585,0.073,0.318,-0.1945
-0.843,-0.799,0.045,0.8205,-0.4445,-0.377,-0.472,-0.175,0.0345,-0.196,-0.209,-0.266,0.069,0.32,-0.177
-0.8445,-0.812,0.033,0.828,-0.439,-0.3895,-0.47,-0.1795,0.0205,-0.2105,-0.2175,-0.2695,0.0645,0.3085,-0.1635
-0.8465,-0.828,0.019,0.837,-0.433,-0.4045,-0.465,-0.1815,0.011,-0.2215,-0.223,-0.2715,0.061,0.291,-0.1605
-0.85,-0.838,0.0125,0.8435,-0.4315,-0.4125,-0.463,-0.188,-0.007,-0.24,-0.2345,-0.276,0.0535,0.285,-0.151
-0.8535,-0.85,0.0045,0.8515,-0.429,-0.4225,-0.464,-0.1975,-0.028,-0.2635,-0.2465,-0.283,0.0435,0.2825,-0.134
-0.851,-0.8545,-0.003,0.8525,-0.424,-0.429,-0.4625,-0.203,-0.043,-0.279,-0.2565,-0.2885,0.0385,0.2855,-0.12
-0.858,-0.8615,-0.003,0.8595,-0.4275,-0.4325,-0.463,-0.2105,-0.059,-0.296,-0.27,-0.2955,0.03,0.2865,-0.1145
-0.86,-0.8725,-0.012,0.866,-0.424,-0.4425,-0.4595,-0.2155,-0.0725,-0.3115,-0.2785,-0.3,0.025,0.27,-0.1075
-0.8565,-0.877,-0.02,0.8665,-0.4185,-0.4485,-0.456,-0.2175,-0.0845,-0.3225,-0.2845,-0.3015,0.0195,0.258,-0.1005
-0.8555,-0.8805,-0.0245,0.8675,-0.416,-0.4525,-0.453,-0.2205,-0.097,-0.3355,-0.2925,-0.3045,0.0115,0.2625,-0.089
-0.8605,-0.886,-0.025,0.873,-0.418,-0.4555,-0.4505,-0.2255,-0.109,-0.3495,-0.3005,-0.309,0.009,0.2525,-0.0865
-0.8605,-0.89,-0.029,0.875,-0.416,-0.4595,-0.4495,-0.233,-0.122,-0.366,-0.3095,-0.313,0.0055,0.248,-0.0745
-0.862,-0.8945,-0.032,0.878,-0.4155,-0.463,-0.4575,-0.2445,-0.1405,-0.382,-0.3215,-0.32,0.001,0.254,-0.058
-0.871,-0.9055,-0.0345,0.888,-0.4185,-0.47,-0.461,-0.254,-0.156,-0.397,-0.334,-0.33,-0.0055,0.2425,-0.057
-0.8775,-0.9205,-0.043,0.899,-0.4175,-0.4815,-0.451,-0.258,-0.166,-0.41,-0.343,-0.3355,-0.0135,0.237,-0.0445
-0.8895,-0.927,-0.0375,0.908,-0.426,-0.482,-0.4435,-0.262,-0.173,-0.4165,-0.3445,-0.334,-0.0185,0.237,-0.041
-0.896,-0.942,-0.0455,0.919,-0.4255,-0.494,-0.4395,-0.2625,-0.18,-0.426,-0.3495,-0.3345,-0.022,0.2265,-0.026
-0.896,-0.9525,-0.056,0.924,-0.42,-0.5045,-0.44,-0.265,-0.189,-0.4365,-0.3575,-0.3385,-0.0275,0.2205,-0.02
-0.9015,-0.9555,-0.0535,0.9285,-0.4245,-0.5045,-0.4395,-0.272,-0.1985,-0.445,-0.367,-0.344,-0.0335,0.2195,-0.019
-0.904,-0.9575,-0.0535,0.9305,-0.4255,-0.5055,-0.44,-0.281,-0.2105,-0.4545,-0.377,-0.349,-0.0355,0.2175,-0.012
-0.901,-0.955,-0.0535,0.9275,-0.424,-0.504,-0.4435,-0.2895,-0.222,-0.4635,-0.379,-0.351,-0.035,0.21,-0.016
-0.9065,-0.967,-0.06,0.9365,-0.4235,-0.5135,-0.451,-0.3,-0.2365,-0.479,-0.3885,-0.358,-0.0395,0.2025,-0.0095
-0.91,-0.9855,-0.075,0.9475,-0.4175,-0.5305,-0.45,-0.3045,-0.2465,-0.49,-0.396,-0.3615,-0.044,0.1945,-0.0005
-0.9105,-0.993,-0.0825,0.9515,-0.414,-0.538,-0.444,-0.306,-0.252,-0.5005,-0.3995,-0.362,-0.049,0.192,0.0075
-0.9125,-0.992,-0.079,0.952,-0.417,-0.5355,-0.449,-0.314,-0.2635,-0.512,-0.406,-0.366,-0.054,0.1915,0.006
-0.908,-0.992,-0.0835,0.95,-0.4125,-0.5375,-0.444,-0.3155,-0.2685,-0.519,-0.407,-0.367,-0.055,0.191,0.0095
-0.91,-0.997,-0.087,0.9535,-0.412,-0.542,-0.442,-0.318,-0.274,-0.53,-0.4105,-0.37,-0.0595,0.189,0.017
-0.915,-1.0015,-0.0865,0.958,-0.4145,-0.544,-0.4455,-0.325,-0.281,-0.5365,-0.4125,-0.371,-0.0595,0.178,0.021
-0.9155,-1.003,-0.0875,0.959,-0.414,-0.545,-0.4455,-0.3275,-0.2875,-0.5405,-0.4145,-0.3725,-0.06,0.172,0.0215
-0.9125,-1.0055,-0.0925,0.9585,-0.41,-0.549,-0.448,-0.33,-0.2925,-0.545,-0.417,-0.3725,-0.0635,0.17,0.0215
-0.9115,-1.0075,-0.095,0.959,-0.4085,-0.551,-0.443,-0.332,-0.296,-0.5455,-0.4185,-0.374,-0.0675,0.167,0.0225
-0.9145,-1.0085,-0.0935,0.9615,-0.4105,-0.551,-0.441,-0.3345,-0.3005,-0.5465,-0.4215,-0.3765,-0.0715,0.1645,0.02
-0.9175,-1.014,-0.096,0.9655,-0.411,-0.555,-0.4455,-0.341,-0.307,-0.549,-0.426,-0.38,-0.073,0.1655,0.016
-0.924,-1.0215,-0.097,0.9725,-0.414,-0.5595,-0.448,-0.348,-0.315,-0.556,-0.4345,-0.3875,-0.0815,0.1675,0.0245
-0.9245,-1.0205,-0.0955,0.972,-0.415,-0.558,-0.4505,-0.3495,-0.317,-0.56,-0.4335,-0.385,-0.0775,0.17,0.0345
-0.9265,-1.0225,-0.0955,0.9745,-0.416,-0.559,-0.45,-0.3515,-0.322,-0.563,-0.4335,-0.384,-0.076,0.1655,0.0385
-0.934,-1.0335,-0.0985,0.9835,-0.418,-0.566,-0.447,-0.3555,-0.3275,-0.5695,-0.439,-0.3875,-0.082,0.1545,0.039
-0.9415,-1.043,-0.101,0.992,-0.4205,-0.572,-0.452,-0.358,-0.3325,-0.5755,-0.445,-0.3915,-0.079,0.1475,0.029
-0.939,-1.044,-0.105,0.9915,-0.417,-0.5745,-0.4525,-0.3605,-0.337,-0.5785,-0.45,-0.3945,-0.084,0.147,0.0335
-0.9315,-1.038,-0.106,0.9845,-0.413,-0.572,-0.4475,-0.363,-0.3385,-0.5795,-0.449,-0.392,-0.086,0.1555,0.041
-0.9295,-1.04,-0.1105,0.9845,-0.4095,-0.5755,-0.4475,-0.3665,-0.3445,-0.582,-0.4505,-0.3925,-0.0835,0.148,0.0475
-0.9335,-1.0475,-0.113,0.9905,-0.4105,-0.58,-0.4485,-0.3715,-0.3505,-0.588,-0.4555,-0.399,-0.0835,0.144,0.056
-0.943,-1.0555,-0.112,0.999,-0.4155,-0.584,-0.4505,-0.3725,-0.3505,-0.589,-0.4545,-0.399,-0.0815,0.148,0.059
-0.9505,-1.059,-0.1075,1.0045,-0.422,-0.583,-0.4475,-0.3735,-0.3495,-0.5895,-0.4555,-0.396,-0.081,0.1465,0.06
-0.9575,-1.0595,-0.1015,1.0085,-0.4285,-0.5805,-0.4515,-0.378,-0.353,-0.5955,-0.463,-0.4,-0.0835,0.1465,0.0545
-0.95,-1.065,-0.1145,1.007,-0.418,-0.5895,-0.4545,-0.3785,-0.356,-0.5995,-0.465,-0.403,-0.089,0.1475,0.055
-0.9435,-1.062,-0.118,1.0025,-0.413,-0.59,-0.449,-0.3805,-0.359,-0.6025,-0.464,-0.4015,-0.088,0.1465,0.049
-0.9405,-1.0585,-0.1175,0.999,-0.4115,-0.588,-0.4475,-0.38,-0.3595,-0.6015,-0.461,-0.3975,-0.084,0.1295,0.0445
-0.9395,-1.059,-0.119,0.999,-0.4105,-0.589,-0.45,-0.3815,-0.3615,-0.601,-0.459,-0.3965,-0.084,0.1225,0.0445
-0.9405,-1.064,-0.123,1.002,-0.409,-0.5935,-0.4525,-0.384,-0.3635,-0.6035,-0.4615,-0.3965,-0.082,0.124,0.0475
-0.9395,-1.071,-0.1315,1.005,-0.4045,-0.6015,-0.453,-0.3825,-0.363,-0.605,-0.464,-0.4005,-0.0815,0.123,0.058
-0.94,-1.066,-0.1255,1.0025,-0.4075,-0.5955,-0.4495,-0.382,-0.363,-0.605,-0.464,-0.4005,-0.0855,0.1255,0.044
-0.9395,-1.0635,-0.1235,1.0015,-0.4085,-0.5935,-0.4495,-0.3855,-0.366,-0.6085,-0.4685,-0.403,-0.0895,0.1235,0.0405
-0.9445,-1.067,-0.122,1.0055,-0.4115,-0.5945,-0.454,-0.391,-0.372,-0.615,-0.4755,-0.4095,-0.094,0.1275,0.049
-0.9435,-1.0705,-0.1265,1.007,-0.409,-0.5985,-0.4525,-0.3905,-0.3705,-0.613,-0.476,-0.408,-0.099,0.134,0.05
-0.944,-1.069,-0.1245,1.0065,-0.41,-0.597,-0.4515,-0.3895,-0.3695,-0.612,-0.472,-0.405,-0.098,0.1425,0.056
-0.947,-1.076,-0.1285,1.0115,-0.409,-0.6025,-0.45,-0.3885,-0.3685,-0.612,-0.472,-0.4045,-0.0965,0.1345,0.061
-0.948,-1.084,-0.1355,1.0155,-0.4065,-0.61,-0.449,-0.388,-0.3695,-0.6135,-0.4755,-0.4095,-0.098,0.117,0.063
-0.9515,-1.0805,-0.128,1.0155,-0.412,-0.6045,-0.4485,-0.3875,-0.371,-0.6155,-0.4785,-0.413,-0.098,0.1235,0.0685
-0.9545,-1.0805,-0.1255,1.0175,-0.415,-0.603,-0.4465,-0.386,-0.3705,-0.6125,-0.4785,-0.41,-0.0975,0.128,0.0745
-0.949,-1.079,-0.1295,1.0135,-0.41,-0.604,-0.448,-0.387,-0.372,-0.613,-0.477,-0.4085,-0.098,0.127,0.0755
-0.9485,-1.086,-0.137,1.017,-0.4065,-0.6115,-0.4485,-0.3895,-0.3755,-0.618,-0.482,-0.416,-0.104,0.1245,0.077
-0.9435,-1.0835,-0.1395,1.013,-0.402,-0.6115,-0.446,-0.388,-0.3735,-0.618,-0.483,-0.4145,-0.1015,0.1205,0.073
-0.9445,-1.091,-0.146,1.0175,-0.3995,-0.6185,-0.447,-0.3895,-0.3735,-0.619,-0.4835,-0.4115,-0.0975,0.1165,0.0755
-0.954,-1.0965,-0.142,1.025,-0.4065,-0.6195,-0.448,-0.393,-0.376,-0.624,-0.487,-0.417,-0.1,0.123,0.0715
-0.9425,-1.0885,-0.1455,1.015,-0.399,-0.617,-0.447,-0.389,-0.373,-0.6255,-0.4865,-0.416,-0.0985,0.129,0.0745
-0.939,-1.092,-0.152,1.0155,-0.3935,-0.622,-0.4465,-0.3885,-0.3725,-0.626,-0.488,-0.418,-0.1,0.1215,0.0785
-0.9335,-1.081,-0.147,1.007,-0.3935,-0.614,-0.4435,-0.384,-0.3675,-0.6245,-0.486,-0.4175,-0.103,0.1235,0.071
-0.9345,-1.0855,-0.1505,1.01,-0.3925,-0.618,-0.446,-0.383,-0.367,-0.624,-0.4875,-0.42,-0.104,0.117,0.071
-0.9475,-1.098,-0.15,1.0225,-0.399,-0.624,-0.444,-0.3845,-0.3685,-0.626,-0.489,-0.4215,-0.107,0.111,0.0665
-0.95,-1.095,-0.1445,1.0225,-0.403,-0.62,-0.437,-0.381,-0.3665,-0.627,-0.4895,-0.4225,-0.114,0.119,0.0725
-0.9465,-1.0885,-0.1415,1.0175,-0.403,-0.615,-0.4365,-0.379,-0.365,-0.6265,-0.491,-0.423,-0.115,0.125,0.072
-0.9385,-1.0855,-0.1465,1.0115,-0.3965,-0.616,-0.438,-0.3775,-0.3625,-0.6195,-0.4885,-0.421,-0.1085,0.119,0.0695
-0.939,-1.0855,-0.146,1.012,-0.397,-0.6155,-0.436,-0.376,-0.3615,-0.6155,-0.489,-0.4225,-0.108,0.114,0.0665
-0.9465,-1.0865,-0.1395,1.016,-0.404,-0.613,-0.4325,-0.3715,-0.3575,-0.6145,-0.487,-0.42,-0.1105,0.115,0.059
-0.9505,-1.091,-0.1405,1.0205,-0.405,-0.616,-0.4325,-0.372,-0.358,-0.6155,-0.4875,-0.42,-0.111,0.1135,0.0635
-0.952,-1.0975,-0.145,1.0245,-0.4035,-0.6215,-0.431,-0.371,-0.3575,-0.6175,-0.4895,-0.4225,-0.1095,0.115,0.0635
-0.9585,-1.1055,-0.147,1.032,-0.406,-0.6265,-0.434,-0.3715,-0.358,-0.6195,-0.493,-0.4245,-0.1075,0.111,0.063
-0.9615,-1.1085,-0.147,1.035,-0.4075,-0.6275,-0.434,-0.3725,-0.359,-0.622,-0.497,-0.428,-0.1155,0.1095,0.0615
-0.957,-1.1045,-0.1465,1.0305,-0.4055,-0.6255,-0.436,-0.373,-0.358,-0.622,-0.4975,-0.4295,-0.1185,0.109,0.0595
-0.9545,-1.1045,-0.149,1.0295,-0.403,-0.6265,-0.44,-0.3735,-0.3575,-0.621,-0.496,-0.429,-0.114,0.1015,0.057
-0.9515,-1.101,-0.1485,1.026,-0.4015,-0.625,-0.436,-0.368,-0.352,-0.618,-0.494,-0.427,-0.1145,0.098,0.0555
-0.952,-1.104,-0.1515,1.028,-0.4005,-0.628,-0.435,-0.3675,-0.348,-0.6155,-0.4925,-0.426,-0.113,0.098,0.056
-0.954,-1.112,-0.1575,1.033,-0.399,-0.6345,-0.434,-0.363,-0.345,-0.613,-0.4905,-0.4255,-0.1115,0.1015,0.0605
-0.9575,-1.105,-0.1465,1.031,-0.4055,-0.626,-0.4375,-0.3645,-0.3455,-0.615,-0.4905,-0.427,-0.109,0.1165,0.0675
-0.962,-1.1105,-0.148,1.036,-0.4075,-0.629,-0.4395,-0.369,-0.35,-0.619,-0.494,-0.433,-0.1085,0.1125,0.067
-0.962,-1.1085,-0.146,1.035,-0.4085,-0.627,-0.4395,-0.3675,-0.3475,-0.6165,-0.494,-0.434,-0.1095,0.1075,0.0565
-0.9605,-1.108,-0.1465,1.034,-0.407,-0.6275,-0.445,-0.3655,-0.3455,-0.6145,-0.492,-0.4315,-0.106,0.1095,0.0595
-0.962,-1.118,-0.1555,1.0395,-0.4035,-0.6365,-0.439,-0.3615,-0.3425,-0.6135,-0.491,-0.4315,-0.109,0.1085,0.063
-0.9675,-1.117,-0.1485,1.042,-0.41,-0.633,-0.4295,-0.364,-0.3415,-0.615,-0.492,-0.4335,-0.116,0.116,0.0595
-0.9735,-1.122,-0.148,1.0475,-0.413,-0.635,-0.4365,-0.3655,-0.345,-0.6185,-0.495,-0.437,-0.1135,0.1135,0.062
-0.978,-1.122,-0.143,1.05,-0.418,-0.6325,-0.44,-0.365,-0.344,-0.619,-0.494,-0.437,-0.112,0.1115,0.0565
-0.9805,-1.117,-0.1365,1.0485,-0.4225,-0.627,-0.4445,-0.3675,-0.3445,-0.6215,-0.497,-0.439,-0.1135,0.1135,0.0485
-0.9775,-1.1065,-0.1285,1.042,-0.425,-0.6175,-0.4425,-0.365,-0.341,-0.6155,-0.495,-0.4355,-0.111,0.124,0.044
-0.9765,-1.1035,-0.1265,1.0395,-0.425,-0.615,-0.4345,-0.3605,-0.336,-0.608,-0.49,-0.4295,-0.1105,0.129,0.0445
-0.9735,-1.1045,-0.1305,1.039,-0.4215,-0.6175,-0.4355,-0.362,-0.337,-0.608,-0.489,-0.4285,-0.109,0.1265,0.047
-0.9715,-1.1005,-0.1285,1.0355,-0.4215,-0.6145,-0.437,-0.3625,-0.3365,-0.608,-0.4885,-0.4265,-0.1065,0.1305,0.0475
-0.973,-1.1025,-0.129,1.0375,-0.4225,-0.6155,-0.4375,-0.3625,-0.3345,-0.6075,-0.489,-0.4275,-0.1095,0.1275,0.046
-0.9715,-1.096,-0.124,1.034,-0.424,-0.61,-0.435,-0.36,-0.33,-0.605,-0.485,-0.425,-0.107,0.1355,0.044
-0.973,-1.0925,-0.119,1.0325,-0.427,-0.6055,-0.4385,-0.361,-0.3305,-0.607,-0.485,-0.424,-0.104,0.137,0.0455
-0.972,-1.0945,-0.1215,1.033,-0.4255,-0.608,-0.442,-0.364,-0.3325,-0.611,-0.486,-0.425,-0.107,0.1265,0.042
-0.971,-1.0945,-0.1235,1.0325,-0.424,-0.609,-0.441,-0.364,-0.333,-0.613,-0.4845,-0.4245,-0.102,0.1245,0.0415
-0.9745,-1.0955,-0.1205,1.0345,-0.4275,-0.608,-0.4395,-0.3615,-0.331,-0.6105,-0.482,-0.4235,-0.1005,0.127,0.042
-0.967,-1.0915,-0.124,1.029,-0.422,-0.6075,-0.4355,-0.3565,-0.3245,-0.6025,-0.476,-0.4175,-0.1005,0.129,0.044
-0.9595,-1.087,-0.127,1.023,-0.4165,-0.6065,-0.438,-0.3585,-0.325,-0.6045,-0.475,-0.4175,-0.0965,0.1325,0.052
-0.9725,-1.088,-0.115,1.03,-0.429,-0.6015,-0.4425,-0.361,-0.328,-0.607,-0.4785,-0.4195,-0.0945,0.138,0.049
-0.977,-1.087,-0.109,1.0315,-0.434,-0.598,-0.4425,-0.361,-0.3265,-0.603,-0.4775,-0.418,-0.0965,0.1385,0.0415
-0.9645,-1.0845,-0.1195,1.0245,-0.4225,-0.6025,-0.444,-0.361,-0.327,-0.599,-0.475,-0.417,-0.0965,0.1325,0.047
-0.9635,-1.0925,-0.1285,1.0275,-0.4175,-0.6105,-0.448,-0.365,-0.33,-0.6005,-0.477,-0.42,-0.095,0.1245,0.0465
-0.968,-1.094,-0.1255,1.031,-0.4215,-0.61,-0.4455,-0.3655,-0.3295,-0.6025,-0.4765,-0.42,-0.0975,0.127,0.033
-0.969,-1.09,-0.12,1.0295,-0.425,-0.605,-0.443,-0.3615,-0.326,-0.6005,-0.472,-0.416,-0.098,0.1355,0.0285
-0.971,-1.085,-0.1135,1.0275,-0.429,-0.5995,-0.4435,-0.3595,-0.3225,-0.6,-0.4705,-0.4155,-0.099,0.1405,0.019
-0.975,-1.0855,-0.1095,1.03,-0.433,-0.5975,-0.448,-0.3635,-0.326,-0.603,-0.4735,-0.419,-0.1005,0.147,0.024
-0.9765,-1.086,-0.109,1.031,-0.434,-0.5975,-0.4505,-0.366,-0.3285,-0.607,-0.477,-0.421,-0.103,0.151,0.035
-0.974,-1.08,-0.1055,1.027,-0.4345,-0.593,-0.444,-0.36,-0.3235,-0.601,-0.4715,-0.4135,-0.098,0.1465,0.0355
-0.9735,-1.0775,-0.1035,1.0255,-0.4355,-0.5905,-0.44,-0.355,-0.316,-0.593,-0.464,-0.408,-0.0925,0.145,0.041
-0.97,-1.074,-0.1035,1.0215,-0.4335,-0.5885,-0.442,-0.355,-0.313,-0.5905,-0.4605,-0.405,-0.095,0.152,0.0405
-0.971,-1.0745,-0.103,1.0225,-0.434,-0.589,-0.4475,-0.359,-0.3165,-0.592,-0.461,-0.407,-0.099,0.157,0.0395
-0.974,-1.073,-0.0985,1.023,-0.438,-0.5855,-0.4505,-0.3615,-0.319,-0.5935,-0.462,-0.408,-0.0975,0.157,0.041
-0.9695,-1.07,-0.1,1.0195,-0.435,-0.585,-0.4525,-0.363,-0.3215,-0.5925,-0.4625,-0.4085,-0.0915,0.1565,0.049
-0.9655,-1.065,-0.099,1.015,-0.4335,-0.582,-0.454,-0.365,-0.32,-0.593,-0.463,-0.41,-0.093,0.163,0.052
-0.9635,-1.0565,-0.092,1.0095,-0.436,-0.574,-0.4555,-0.3655,-0.3195,-0.592,-0.4605,-0.407,-0.093,0.166,0.0415
-0.96,-1.053,-0.0925,1.006,-0.434,-0.5725,-0.455,-0.3645,-0.3185,-0.59,-0.4575,-0.406,-0.087,0.1625,0.0365
-0.9525,-1.0505,-0.0975,1.001,-0.428,-0.574,-0.451,-0.3605,-0.314,-0.5855,-0.4545,-0.4015,-0.081,0.1615,0.0395
-0.9545,-1.049,-0.094,1.0015,-0.4305,-0.5715,-0.4515,-0.3595,-0.315,-0.584,-0.4535,-0.402,-0.082,0.1665,0.0385
-0.9625,-1.044,-0.081,1.003,-0.441,-0.5625,-0.4515,-0.36,-0.3135,-0.5845,-0.452,-0.401,-0.087,0.169,0.035
-0.9525,-1.037,-0.084,0.9945,-0.4345,-0.5605,-0.4495,-0.3575,-0.31,-0.5795,-0.448,-0.3985,-0.086,0.1635,0.035
-0.942,-1.0355,-0.093,0.9885,-0.4245,-0.564,-0.449,-0.355,-0.307,-0.575,-0.4435,-0.3955,-0.084,0.16,0.031
-0.937,-1.031,-0.0935,0.984,-0.422,-0.562,-0.447,-0.353,-0.3035,-0.573,-0.439,-0.3915,-0.0835,0.1635,0.026
-0.936,-1.0275,-0.091,0.9815,-0.423,-0.559,-0.4445,-0.3525,-0.3015,-0.5705,-0.4385,-0.3915,-0.084,0.1665,0.0225
-0.9465,-1.0295,-0.0825,0.9875,-0.432,-0.556,-0.446,-0.355,-0.3025,-0.5695,-0.4395,-0.391,-0.082,0.1675,0.016
-0.951,-1.033,-0.0815,0.9915,-0.435,-0.557,-0.4525,-0.3575,-0.3045,-0.568,-0.44,-0.391,-0.0795,0.1675,0.014
-0.9565,-1.039,-0.082,0.9975,-0.4375,-0.5605,-0.4585,-0.362,-0.3075,-0.5725,-0.4425,-0.3945,-0.084,0.164,0.0085
-0.961,-1.0435,-0.0815,1.002,-0.44,-0.5625,-0.461,-0.363,-0.3095,-0.5725,-0.444,-0.397,-0.085,0.1595,0.011
-0.955,-1.045,-0.0895,0.9995,-0.433,-0.5675,-0.458,-0.361,-0.308,-0.5675,-0.4395,-0.3925,-0.084,0.151,0.0225
-0.9525,-1.038,-0.085,0.995,-0.434,-0.5615,-0.455,-0.359,-0.307,-0.5675,-0.438,-0.3895,-0.0835,0.155,0.0185
-0.952,-1.036,-0.0835,0.994,-0.4345,-0.56,-0.4535,-0.3575,-0.304,-0.566,-0.438,-0.389,-0.083,0.1595,0.015
-0.947,-1.0365,-0.0885,0.9915,-0.4295,-0.5625,-0.448,-0.353,-0.299,-0.561,-0.432,-0.386,-0.084,0.1585,0.015
-0.95,-1.0365,-0.086,0.993,-0.432,-0.5615,-0.448,-0.3525,-0.301,-0.5635,-0.432,-0.388,-0.088,0.163,0.016
-0.9485,-1.033,-0.084,0.9905,-0.4325,-0.5585,-0.453,-0.357,-0.3035,-0.5645,-0.434,-0.391,-0.0935,0.1665,0.017
-0.9385,-1.023,-0.0835,0.9805,-0.4275,-0.5535,-0.451,-0.355,-0.302,-0.561,-0.43,-0.386,-0.0945,0.164,0.0175
-0.938,-1.023,-0.0845,0.9805,-0.427,-0.554,-0.449,-0.3525,-0.3015,-0.5595,-0.428,-0.3825,-0.0915,0.1625,0.0235
-0.935,-1.023,-0.0875,0.9785,-0.424,-0.5555,-0.448,-0.351,-0.299,-0.5545,-0.425,-0.381,-0.0895,0.162,0.0215
-0.928,-1.02,-0.092,0.974,-0.418,-0.556,-0.4485,-0.3505,-0.298,-0.549,-0.4235,-0.3795,-0.087,0.161,0.0155
-0.93,-1.019,-0.0885,0.9745,-0.421,-0.554,-0.45,-0.3535,-0.3,-0.5465,-0.426,-0.383,-0.0835,0.169,0.013
-0.94,-1.0245,-0.084,0.982,-0.428,-0.5545,-0.4515,-0.356,-0.305,-0.5525,-0.43,-0.3875,-0.0855,0.175,0.0105
-0.9435,-1.024,-0.08,0.9835,-0.432,-0.552,-0.451,-0.355,-0.303,-0.5535,-0.429,-0.387,-0.0835,0.183,0.0125
-0.9335,-1.0155,-0.0815,0.9745,-0.4265,-0.5485,-0.455,-0.355,-0.303,-0.5505,-0.4255,-0.383,-0.0785,0.1825,0.012
-0.929,-1.015,-0.0855,0.9715,-0.422,-0.55,-0.46,-0.3585,-0.3055,-0.5505,-0.4265,-0.3825,-0.0785,0.1755,0.0095
-0.9275,-1.0105,-0.0825,0.969,-0.4225,-0.5465,-0.4565,-0.3535,-0.296,-0.544,-0.42,-0.3785,-0.0755,0.176,0.0055
-0.931,-1.005,-0.0735,0.968,-0.429,-0.539,-0.4525,-0.352,-0.2935,-0.5395,-0.4145,-0.375,-0.074,0.1785,0.0
-0.934,-0.9975,-0.0635,0.9655,-0.4355,-0.5305,-0.4515,-0.3545,-0.295,-0.539,-0.4115,-0.3735,-0.073,0.188,-0.003
-0.9295,-0.985,-0.0555,0.957,-0.4375,-0.5205,-0.453,-0.3515,-0.289,-0.5365,-0.409,-0.3715,-0.071,0.194,-0.0195
-0.9345,-0.9845,-0.049,0.9595,-0.443,-0.517,-0.4515,-0.35,-0.2875,-0.535,-0.415,-0.3765,-0.0725,0.1995,-0.018
-0.9325,-0.986,-0.0525,0.959,-0.4405,-0.519,-0.4505,-0.35,-0.2875,-0.5335,-0.413,-0.3735,-0.071,0.2045,-0.0065
-0.932,-0.983,-0.05,0.9575,-0.441,-0.5165,-0.4515,-0.3515,-0.2885,-0.5325,-0.4085,-0.3705,-0.069,0.207,-0.0155
-0.9355,-0.991,-0.055,0.963,-0.4405,-0.523,-0.4495,-0.351,-0.2875,-0.5325,-0.411,-0.374,-0.069,0.2045,-0.0095
-0.9375,-0.9995,-0.0615,0.968,-0.438,-0.5305,-0.448,-0.3495,-0.286,-0.531,-0.4125,-0.375,-0.0745,0.195,0.0015
-0.939,-0.998,-0.0585,0.9685,-0.4405,-0.5285,-0.4455,-0.3485,-0.2865,-0.5305,-0.4135,-0.375,-0.078,0.2,0.001
-0.934,-0.991,-0.0565,0.962,-0.4385,-0.524,-0.442,-0.347,-0.2855,-0.528,-0.414,-0.3755,-0.08,0.2115,0.005
-0.934,-0.9825,-0.048,0.958,-0.4435,-0.515,-0.4395,-0.347,-0.2845,-0.5265,-0.4125,-0.376,-0.083,0.221,-0.002
-0.9305,-0.9735,-0.0425,0.9515,-0.444,-0.508,-0.4355,-0.345,-0.281,-0.5225,-0.4095,-0.3725,-0.0805,0.231,-0.017
-0.9215,-0.973,-0.051,0.947,-0.435,-0.512,-0.431,-0.342,-0.2775,-0.517,-0.406,-0.3685,-0.0785,0.223,-0.02
-0.918,-0.9755,-0.057,0.9465,-0.4305,-0.5165,-0.429,-0.34,-0.2755,-0.515,-0.405,-0.367,-0.076,0.216,-0.021
-0.918,-0.971,-0.0525,0.944,-0.433,-0.5115,-0.427,-0.339,-0.2755,-0.517,-0.405,-0.367,-0.076,0.2235,-0.0255
-0.92,-0.968,-0.0475,0.9435,-0.436,-0.508,-0.427,-0.339,-0.2765,-0.5185,-0.405,-0.368,-0.0765,0.2325,-0.0235
-0.921,-0.9645,-0.0425,0.9425,-0.4395,-0.5035,-0.4285,-0.3395,-0.2755,-0.5165,-0.4035,-0.3665,-0.074,0.229,-0.029
-0.9185,-0.9605,-0.0415,0.9395,-0.439,-0.501,-0.43,-0.3375,-0.272,-0.511,-0.398,-0.3605,-0.072,0.2205,-0.038
-0.9195,-0.9645,-0.0445,0.9415,-0.4375,-0.5045,-0.431,-0.3365,-0.2715,-0.51,-0.3995,-0.362,-0.0775,0.2215,-0.0345
-0.9225,-0.966,-0.043,0.944,-0.44,-0.5045,-0.429,-0.3345,-0.27,-0.5105,-0.4,-0.3625,-0.079,0.2215,-0.0385
-0.919,-0.9585,-0.039,0.9385,-0.4405,-0.4985,-0.428,-0.3305,-0.267,-0.506,-0.3965,-0.3575,-0.0705,0.224,-0.042
-0.9175,-0.9565,-0.038,0.9365,-0.44,-0.497,-0.43,-0.333,-0.2695,-0.507,-0.401,-0.3615,-0.07,0.2235,-0.0385
-0.9165,-0.9495,-0.0325,0.9325,-0.442,-0.491,-0.4305,-0.333,-0.269,-0.5085,-0.403,-0.3645,-0.0725,0.231,-0.0415
-0.916,-0.945,-0.0285,0.93,-0.444,-0.4865,-0.4275,-0.3315,-0.267,-0.5075,-0.402,-0.3625,-0.07,0.2385,-0.036
-0.914,-0.946,-0.032,0.93,-0.4415,-0.489,-0.4265,-0.3295,-0.2675,-0.5085,-0.4005,-0.3615,-0.0695,0.2355,-0.0295
-0.9165,-0.9445,-0.028,0.9305,-0.4445,-0.4865,-0.429,-0.328,-0.2665,-0.51,-0.397,-0.359,-0.0695,0.237,-0.0335
-0.921,-0.9445,-0.023,0.9325,-0.4495,-0.484,-0.43,-0.329,-0.268,-0.511,-0.3955,-0.3575,-0.071,0.2375,-0.0305
-0.9155,-0.944,-0.028,0.9295,-0.444,-0.486,-0.4315,-0.3285,-0.2685,-0.514,-0.3945,-0.358,-0.07,0.2325,-0.033
-0.9095,-0.943,-0.033,0.926,-0.4385,-0.488,-0.4325,-0.33,-0.269,-0.5185,-0.395,-0.3565,-0.064,0.2265,-0.0335
-0.9105,-0.943,-0.0315,0.9265,-0.4395,-0.4875,-0.4325,-0.336,-0.275,-0.523,-0.3985,-0.3595,-0.07,0.23,-0.0355
-0.907,-0.9425,-0.035,0.9245,-0.4365,-0.489,-0.435,-0.3405,-0.279,-0.5235,-0.3985,-0.3615,-0.071,0.227,-0.0455
-0.906,-0.941,-0.0345,0.9235,-0.436,-0.4875,-0.4325,-0.337,-0.2775,-0.522,-0.399,-0.3615,-0.067,0.227,-0.0425
-0.9085,-0.9485,-0.04,0.928,-0.4345,-0.494,-0.436,-0.3365,-0.2765,-0.5195,-0.398,-0.3615,-0.0675,0.2285,-0.0385
-0.9025,-0.9505,-0.047,0.926,-0.428,-0.499,-0.44,-0.3375,-0.275,-0.5155,-0.3945,-0.358,-0.0615,0.2275,-0.0345
-0.9015,-0.949,-0.047,0.925,-0.4275,-0.498,-0.439,-0.3405,-0.2755,-0.5115,-0.3955,-0.359,-0.063,0.2305,-0.0335
-0.902,-0.9525,-0.05,0.927,-0.426,-0.501,-0.446,-0.344,-0.2785,-0.5115,-0.396,-0.3585,-0.065,0.226,-0.0375
-0.912,-0.948,-0.035,0.9295,-0.439,-0.4915,-0.4505,-0.344,-0.2785,-0.5125,-0.3945,-0.3555,-0.065,0.2325,-0.0385
-0.9145,-0.942,-0.027,0.928,-0.444,-0.4845,-0.4585,-0.348,-0.2785,-0.512,-0.3915,-0.3525,-0.064,0.2395,-0.0325
-0.898,-0.9265,-0.0285,0.912,-0.435,-0.4775,-0.4685,-0.353,-0.278,-0.511,-0.387,-0.348,-0.059,0.251,-0.027
-0.8945,-0.9255,-0.03,0.9095,-0.4325,-0.478,-0.477,-0.36,-0.281,-0.5125,-0.385,-0.347,-0.0575,0.251,-0.031
-0.901,-0.936,-0.035,0.9185,-0.433,-0.4855,-0.4865,-0.368,-0.2885,-0.518,-0.3905,-0.3515,-0.062,0.2435,-0.0345
-0.903,-0.94,-0.0365,0.921,-0.4335,-0.488,-0.49,-0.371,-0.289,-0.5175,-0.3895,-0.3495,-0.0605,0.251,-0.021
-0.906,-0.9315,-0.025,0.9185,-0.441,-0.4785,-0.4955,-0.3755,-0.2905,-0.517,-0.3875,-0.3475,-0.06,0.265,-0.0185
-0.9065,-0.9205,-0.0135,0.9135,-0.447,-0.467,-0.501,-0.3805,-0.294,-0.5175,-0.3865,-0.349,-0.0625,0.273,-0.026
-0.8955,-0.9205,-0.025,0.908,-0.4355,-0.473,-0.5015,-0.379,-0.2915,-0.513,-0.3805,-0.343,-0.0565,0.264,-0.0175
-0.8925,-0.915,-0.022,0.9035,-0.4355,-0.4685,-0.505,-0.38,-0.2885,-0.5085,-0.375,-0.3365,-0.053,0.2675,-0.0205
-0.905,-0.922,-0.016,0.913,-0.445,-0.469,-0.5085,-0.3855,-0.2915,-0.51,-0.375,-0.3385,-0.0505,0.274,-0.0215
-0.921,-0.94,-0.0185,0.9305,-0.4515,-0.4795,-0.515,-0.3955,-0.303,-0.5195,-0.3825,-0.345,-0.05,0.267,-0.0085
-0.9195,-0.937,-0.017,0.928,-0.4515,-0.4775,-0.5255,-0.4065,-0.313,-0.524,-0.384,-0.3455,-0.052,0.2675,-0.0025
-0.912,-0.924,-0.012,0.9175,-0.4505,-0.468,-0.541,-0.4185,-0.32,-0.525,-0.381,-0.342,-0.0475,0.2815,0.006
-0.9075,-0.9225,-0.0145,0.9145,-0.4465,-0.4685,-0.561,-0.432,-0.328,-0.5285,-0.381,-0.34,-0.039,0.2805,0.022
-0.904,-0.9275,-0.023,0.9155,-0.441,-0.475,-0.57,-0.4395,-0.3335,-0.5325,-0.3835,-0.3405,-0.0335,0.2715,0.0295
-0.9,-0.925,-0.0245,0.9125,-0.438,-0.4745,-0.567,-0.4355,-0.329,-0.526,-0.378,-0.3365,-0.0305,0.265,0.0225
-0.8905,-0.9245,-0.0335,0.9075,-0.429,-0.479,-0.5655,-0.432,-0.327,-0.5225,-0.376,-0.3345,-0.0255,0.2615,0.0215
-0.889,-0.9195,-0.03,0.904,-0.4295,-0.475,-0.5655,-0.4365,-0.3335,-0.5295,-0.381,-0.339,-0.0275,0.2795,0.0305
-0.8785,-0.9055,-0.026,0.8915,-0.4265,-0.4655,-0.57,-0.4385,-0.334,-0.528,-0.375,-0.3345,-0.0285,0.2865,0.0275
-0.879,-0.9035,-0.024,0.891,-0.428,-0.4635,-0.57,-0.436,-0.333,-0.5265,-0.3735,-0.332,-0.0295,0.2795,0.021
-0.885,-0.905,-0.019,0.895,-0.4335,-0.462,-0.5565,-0.432,-0.3295,-0.524,-0.3725,-0.3315,-0.0335,0.28,0.0165
-0.8765,-0.9,-0.0235,0.888,-0.427,-0.4615,-0.555,-0.4305,-0.329,-0.5235,-0.3705,-0.329,-0.0335,0.2795,0.01
-0.87,-0.8945,-0.024,0.882,-0.4235,-0.4595,-0.5565,-0.431,-0.3305,-0.5245,-0.371,-0.3265,-0.037,0.2815,0.009
-0.8735,-0.894,-0.02,0.8835,-0.427,-0.457,-0.554,-0.432,-0.3325,-0.527,-0.372,-0.327,-0.039,0.2795,0.016
-0.8795,-0.8965,-0.0165,0.888,-0.432,-0.4565,-0.5525,-0.433,-0.3335,-0.5305,-0.375,-0.332,-0.039,0.281,0.0165
-0.8755,-0.8965,-0.0205,0.8855,-0.428,-0.4585,-0.555,-0.4325,-0.3325,-0.528,-0.3725,-0.3295,-0.0395,0.2845,0.0105
-0.872,-0.9015,-0.029,0.8865,-0.422,-0.465,-0.556,-0.4305,-0.3315,-0.5255,-0.37,-0.327,-0.029,0.276,0.0145
-0.8725,-0.909,-0.036,0.8905,-0.4185,-0.4725,-0.5505,-0.4275,-0.3295,-0.523,-0.3685,-0.3265,-0.026,0.266,0.0105
-0.8725,-0.911,-0.038,0.8915,-0.4175,-0.4745,-0.553,-0.4275,-0.3275,-0.521,-0.365,-0.321,-0.0255,0.266,0.0145
-0.88,-0.919,-0.0385,0.899,-0.421,-0.4785,-0.556,-0.429,-0.3295,-0.5235,-0.3665,-0.3205,-0.023,0.2675,0.023
-0.881,-0.921,-0.039,0.901,-0.4215,-0.48,-0.559,-0.4325,-0.3365,-0.528,-0.3695,-0.3235,-0.021,0.267,0.028
-0.873,-0.9135,-0.04,0.893,-0.417,-0.477,-0.558,-0.43,-0.335,-0.525,-0.3665,-0.321,-0.014,0.268,0.0375
-0.8695,-0.921,-0.051,0.895,-0.4095,-0.486,-0.5585,-0.4285,-0.3375,-0.528,-0.3685,-0.3205,-0.014,0.261,0.041
-0.866,-0.933,-0.067,0.899,-0.3995,-0.5,-0.564,-0.4325,-0.346,-0.535,-0.374,-0.3235,-0.0115,0.245,0.048
-0.8555,-0.936,-0.08,0.8955,-0.388,-0.508,-0.562,-0.433,-0.3465,-0.5375,-0.375,-0.3245,-0.0115,0.241,0.0545
-0.844,-0.937,-0.0925,0.89,-0.376,-0.5145,-0.556,-0.428,-0.3445,-0.536,-0.3715,-0.3205,-0.007,0.241,0.0575
-0.8395,-0.9425,-0.1025,0.8905,-0.369,-0.522,-0.555,-0.4265,-0.344,-0.5365,-0.369,-0.317,0.001,0.233,0.057
-0.839,-0.9535,-0.1145,0.896,-0.3625,-0.534,-0.558,-0.43,-0.3505,-0.5435,-0.3745,-0.32,-0.0045,0.2245,0.062
-0.8375,-0.957,-0.119,0.897,-0.3595,-0.538,-0.558,-0.4295,-0.353,-0.548,-0.3755,-0.319,-0.009,0.222,0.065
-0.843,-0.9555,-0.1125,0.899,-0.3655,-0.534,-0.5555,-0.4275,-0.3525,-0.55,-0.3775,-0.3195,-0.008,0.22,0.059
-0.849,-0.9635,-0.114,0.906,-0.3675,-0.5385,-0.5505,-0.4255,-0.3535,-0.5535,-0.3805,-0.322,-0.0085,0.219,0.059
-0.8445,-0.9755,-0.13,0.9095,-0.3575,-0.5525,-0.5475,-0.426,-0.3575,-0.56,-0.3845,-0.326,-0.0105,0.209,0.071
-0.8485,-0.99,-0.1405,0.919,-0.354,-0.5655,-0.546,-0.426,-0.3635,-0.5655,-0.3915,-0.33,-0.0065,0.1955,0.075
-0.8555,-0.9975,-0.1415,0.9265,-0.3575,-0.5695,-0.5395,-0.4215,-0.3635,-0.566,-0.3955,-0.3335,-0.007,0.1915,0.0705
-0.865,-1.012,-0.1465,0.938,-0.3595,-0.579,-0.533,-0.415,-0.3615,-0.5625,-0.3985,-0.3365,-0.0125,0.1745,0.071
-0.873,-1.0185,-0.145,0.9455,-0.364,-0.5815,-0.5305,-0.4125,-0.3635,-0.563,-0.399,-0.336,-0.013,0.18,0.076
-0.8585,-1.011,-0.152,0.9345,-0.3535,-0.5815,-0.532,-0.412,-0.366,-0.5685,-0.4005,-0.3385,-0.0135,0.1855,0.0855
-0.8565,-1.019,-0.162,0.9375,-0.3475,-0.5905,-0.529,-0.4105,-0.367,-0.5715,-0.4025,-0.34,-0.0135,0.167,0.0775
-0.862,-1.0215,-0.159,0.9415,-0.3515,-0.59,-0.5285,-0.413,-0.37,-0.575,-0.405,-0.341,-0.0135,0.1675,0.0825
-0.8655,-1.0275,-0.161,0.946,-0.3525,-0.5945,-0.525,-0.411,-0.366,-0.5725,-0.4035,-0.3395,-0.0125,0.158,0.096
-0.88,-1.0355,-0.155,0.9575,-0.363,-0.595,-0.5175,-0.4055,-0.363,-0.57,-0.3995,-0.336,-0.0105,0.15,0.095
-0.8915,-1.044,-0.152,0.9675,-0.37,-0.598,-0.5185,-0.408,-0.3675,-0.575,-0.4055,-0.3425,-0.013,0.142,0.099
-0.8975,-1.055,-0.157,0.976,-0.3705,-0.606,-0.524,-0.4165,-0.3765,-0.5845,-0.4155,-0.353,-0.021,0.133,0.095
-0.896,-1.051,-0.1545,0.973,-0.371,-0.6025,-0.5235,-0.4205,-0.3785,-0.588,-0.419,-0.357,-0.026,0.1455,0.094
-0.8975,-1.056,-0.1575,0.9765,-0.37,-0.6065,-0.517,-0.4175,-0.3765,-0.5875,-0.421,-0.3585,-0.0285,0.1445,0.1
-0.9035,-1.062,-0.158,0.9825,-0.373,-0.61,-0.508,-0.4115,-0.373,-0.5855,-0.4215,-0.36,-0.0345,0.1355,0.097
-0.9125,-1.067,-0.154,0.9895,-0.3795,-0.6105,-0.497,-0.402,-0.3685,-0.5845,-0.4255,-0.368,-0.045,0.1325,0.0915
-0.9275,-1.076,-0.148,1.0015,-0.39,-0.612,-0.4905,-0.3985,-0.371,-0.5915,-0.4355,-0.379,-0.053,0.132,0.0885
-0.937,-1.087,-0.1495,1.0115,-0.394,-0.6185,-0.484,-0.398,-0.374,-0.5975,-0.444,-0.3895,-0.062,0.1215,0.0845
-0.938,-1.0855,-0.147,1.0115,-0.3955,-0.616,-0.484,-0.3995,-0.3775,-0.603,-0.45,-0.397,-0.072,0.1155,0.082
-0.9395,-1.079,-0.139,1.009,-0.4005,-0.6095,-0.4865,-0.3995,-0.378,-0.6045,-0.451,-0.3975,-0.074,0.1245,0.083
-0.9425,-1.086,-0.143,1.014,-0.4,-0.6145,-0.484,-0.397,-0.3805,-0.606,-0.4525,-0.3985,-0.0765,0.118,0.0815
-0.944,-1.0885,-0.144,1.016,-0.4005,-0.616,-0.482,-0.396,-0.3815,-0.6085,-0.454,-0.4,-0.078,0.117,0.0865
-0.9525,-1.0955,-0.1425,1.0235,-0.405,-0.619,-0.482,-0.3965,-0.3835,-0.6125,-0.4585,-0.404,-0.083,0.1225,0.093
-0.9525,-1.098,-0.145,1.025,-0.404,-0.6215,-0.4765,-0.396,-0.385,-0.6155,-0.462,-0.4045,-0.0835,0.12,0.093
-0.952,-1.096,-0.1435,1.024,-0.4045,-0.62,-0.4715,-0.391,-0.3815,-0.6115,-0.46,-0.4015,-0.0845,0.1215,0.1
-0.95,-1.0905,-0.14,1.02,-0.405,-0.615,-0.4745,-0.391,-0.3805,-0.607,-0.457,-0.4015,-0.0855,0.12,0.092
-0.9485,-1.097,-0.148,1.0225,-0.4005,-0.6225,-0.475,-0.389,-0.3795,-0.606,-0.4565,-0.402,-0.0805,0.1155,0.086
-0.9615,-1.116,-0.154,1.0385,-0.404,-0.635,-0.4745,-0.388,-0.3805,-0.609,-0.46,-0.4055,-0.0845,0.107,0.088
-0.967,-1.1135,-0.1455,1.04,-0.411,-0.6295,-0.473,-0.3865,-0.3785,-0.61,-0.4605,-0.4055,-0.0895,0.108,0.0795
-0.962,-1.1065,-0.1445,1.034,-0.409,-0.6255,-0.4715,-0.384,-0.377,-0.6115,-0.461,-0.406,-0.0885,0.107,0.0755
-0.953,-1.1035,-0.1495,1.028,-0.402,-0.6265,-0.4725,-0.3825,-0.375,-0.613,-0.4605,-0.4035,-0.0845,0.102,0.076
-0.953,-1.099,-0.146,1.0255,-0.4035,-0.6225,-0.47,-0.376,-0.372,-0.611,-0.459,-0.4025,-0.0855,0.1085,0.0755
-0.9475,-1.0915,-0.1435,1.019,-0.402,-0.6175,-0.468,-0.3755,-0.3705,-0.6105,-0.457,-0.404,-0.0875,0.112,0.0695
-0.938,-1.087,-0.149,1.0125,-0.3945,-0.618,-0.47,-0.375,-0.3685,-0.612,-0.4545,-0.401,-0.0845,0.116,0.077
-0.9365,-1.0925,-0.1555,1.014,-0.391,-0.624,-0.471,-0.371,-0.3655,-0.607,-0.452,-0.3985,-0.0805,0.117,0.0845
-0.9375,-1.095,-0.157,1.016,-0.3905,-0.626,-0.4675,-0.368,-0.361,-0.602,-0.448,-0.397,-0.076,0.115,0.0815
-0.937,-1.0945,-0.157,1.0155,-0.39,-0.626,-0.4635,-0.363,-0.3565,-0.599,-0.448,-0.396,-0.0735,0.1185,0.0825
-0.933,-1.094,-0.1605,1.013,-0.3865,-0.627,-0.463,-0.3585,-0.351,-0.593,-0.4425,-0.393,-0.071,0.1125,0.075
-0.9405,-1.0895,-0.1485,1.015,-0.3965,-0.619,-0.46,-0.353,-0.345,-0.5865,-0.44,-0.3935,-0.071,0.116,0.0585
-0.9465,-1.0915,-0.1445,1.0185,-0.4015,-0.618,-0.457,-0.3485,-0.3405,-0.581,-0.442,-0.3975,-0.0705,0.117,0.0595
-0.936,-1.0945,-0.158,1.015,-0.3895,-0.626,-0.454,-0.343,-0.336,-0.578,-0.439,-0.3955,-0.068,0.1135,0.0675
-0.933,-1.089,-0.156,1.011,-0.389,-0.6225,-0.449,-0.336,-0.3295,-0.5745,-0.4375,-0.3925,-0.0675,0.1225,0.0625
-0.934,-1.084,-0.149,1.0085,-0.393,-0.6165,-0.45,-0.3345,-0.327,-0.573,-0.4345,-0.392,-0.065,0.1225,0.0615
-0.938,-1.078,-0.1395,1.008,-0.3995,-0.609,-0.4545,-0.335,-0.326,-0.5725,-0.431,-0.389,-0.062,0.131,0.0585
-0.9375,-1.068,-0.13,1.0025,-0.404,-0.5985,-0.458,-0.3355,-0.322,-0.568,-0.4275,-0.388,-0.059,0.1395,0.046
-0.932,-1.06,-0.1275,0.996,-0.4025,-0.594,-0.4575,-0.3345,-0.316,-0.5625,-0.4225,-0.386,-0.057,0.1485,0.045
-0.9345,-1.0625,-0.128,0.9985,-0.4035,-0.595,-0.4575,-0.3305,-0.308,-0.5545,-0.4185,-0.3815,-0.0575,0.1555,0.0405
-0.9355,-1.0565,-0.1205,0.996,-0.408,-0.5885,-0.4605,-0.33,-0.302,-0.5465,-0.4115,-0.376,-0.0535,0.1495,0.018
-0.9365,-1.049,-0.112,0.9925,-0.4125,-0.5805,-0.461,-0.329,-0.2985,-0.5405,-0.4065,-0.372,-0.0555,0.1495,0.0075
-0.933,-1.043,-0.1095,0.9875,-0.412,-0.576,-0.463,-0.329,-0.2945,-0.5365,-0.404,-0.3715,-0.058,0.1545,0.004
-0.9335,-1.035,-0.1015,0.984,-0.416,-0.568,-0.467,-0.3315,-0.2905,-0.532,-0.398,-0.367,-0.0565,0.1635,-0.0025
-0.9305,-1.026,-0.095,0.978,-0.4185,-0.5605,-0.468,-0.3305,-0.287,-0.5245,-0.3925,-0.363,-0.0545,0.178,-0.002
-0.925,-1.0135,-0.088,0.9695,-0.419,-0.551,-0.467,-0.328,-0.28,-0.515,-0.387,-0.357,-0.0525,0.194,0.002
-0.9295,-1.0155,-0.0855,0.9725,-0.422,-0.5505,-0.4635,-0.325,-0.2745,-0.5085,-0.3815,-0.352,-0.052,0.2055,0.0045
-0.935,-1.0195,-0.084,0.977,-0.426,-0.5515,-0.4615,-0.323,-0.27,-0.5025,-0.3785,-0.3495,-0.053,0.209,-0.001
-0.9315,-1.005,-0.073,0.968,-0.4295,-0.539,-0.4605,-0.3185,-0.2585,-0.4895,-0.366,-0.3405,-0.046,0.2155,-0.016
-0.9315,-0.9955,-0.0635,0.9635,-0.4345,-0.5295,-0.4605,-0.317,-0.2525,-0.4815,-0.3565,-0.337,-0.0385,0.227,-0.0285
-0.934,-0.993,-0.058,0.9635,-0.438,-0.5255,-0.464,-0.321,-0.2505,-0.4775,-0.355,-0.3375,-0.039,0.2345,-0.027
-0.9325,-0.977,-0.0445,0.9545,-0.444,-0.511,-0.464,-0.32,-0.2385,-0.4625,-0.342,-0.3285,-0.032,0.245,-0.0365
-0.938,-0.9585,-0.02,0.948,-0.4595,-0.4895,-0.463,-0.3185,-0.2265,-0.4475,-0.3335,-0.319,-0.0265,0.269,-0.042
-0.94,-0.943,-0.0025,0.941,-0.469,-0.4725,-0.4605,-0.314,-0.2135,-0.4325,-0.3225,-0.311,-0.0225,0.3,-0.04
-0.9395,-0.928,0.012,0.9335,-0.476,-0.458,-0.4595,-0.31,-0.1985,-0.4175,-0.3065,-0.3015,-0.0195,0.313,-0.062
-0.942,-0.9125,0.0305,0.927,-0.4865,-0.441,-0.457,-0.307,-0.1835,-0.4035,-0.2935,-0.292,-0.0185,0.3365,-0.064
-0.9385,-0.8875,0.052,0.913,-0.4955,-0.4175,-0.454,-0.304,-0.1665,-0.3835,-0.2765,-0.278,-0.0105,0.362,-0.0815
-0.9425,-0.867,0.076,0.9045,-0.5095,-0.3955,-0.458,-0.3075,-0.153,-0.3665,-0.2635,-0.267,-0.005,0.3765,-0.101
-0.948,-0.8575,0.091,0.9025,-0.5195,-0.383,-0.457,-0.3065,-0.139,-0.349,-0.249,-0.259,-0.0065,0.403,-0.095
-0.941,-0.8305,0.111,0.8855,-0.526,-0.36,-0.4595,-0.303,-0.124,-0.33,-0.231,-0.2435,0.0,0.4095,-0.128
-0.942,-0.813,0.1295,0.8775,-0.536,-0.3415,-0.4625,-0.306,-0.1115,-0.3145,-0.2175,-0.2335,0.009,0.421,-0.1425
-0.9405,-0.795,0.1465,0.8675,-0.5435,-0.324,-0.464,-0.3065,-0.098,-0.2975,-0.201,-0.222,0.0155,0.445,-0.143
-0.935,-0.7685,0.1675,0.8515,-0.5515,-0.3005,-0.4625,-0.3015,-0.08,-0.2775,-0.183,-0.2075,0.024,0.4705,-0.168
-0.9375,-0.7625,0.176,0.85,-0.557,-0.2935,-0.462,-0.299,-0.069,-0.2645,-0.171,-0.201,0.0275,0.4825,-0.1785
-0.934,-0.749,0.186,0.841,-0.56,-0.2815,-0.47,-0.2965,-0.058,-0.2505,-0.159,-0.19,0.036,0.491,-0.1845
-0.9255,-0.726,0.2,0.8255,-0.563,-0.263,-0.467,-0.2895,-0.0385,-0.2275,-0.1385,-0.1725,0.047,0.517,-0.198
-0.9235,-0.7095,0.2145,0.816,-0.569,-0.2475,-0.4635,-0.2845,-0.0225,-0.21,-0.123,-0.164,0.0505,0.535,-0.2115
-0.9185,-0.6865,0.2325,0.8025,-0.5755,-0.227,-0.4605,-0.2785,-0.0035,-0.189,-0.1065,-0.152,0.0585,0.5475,-0.228
-0.915,-0.6595,0.256,0.787,-0.586,-0.2015,-0.457,-0.2725,0.018,-0.165,-0.0855,-0.1365,0.0695,0.567,-0.244
-0.923,-0.639,0.284,0.781,-0.6035,-0.1775,-0.459,-0.2695,0.0385,-0.141,-0.0655,-0.122,0.074,0.594,-0.263
-0.9225,-0.6205,0.3025,0.771,-0.6125,-0.159,-0.455,-0.258,0.066,-0.1125,-0.044,-0.1075,0.0835,0.6195,-0.2835
-0.916,-0.5985,0.318,0.757,-0.6175,-0.14,-0.454,-0.243,0.09,-0.0855,-0.0255,-0.0985,0.095,0.6455,-0.3045
-0.915,-0.5625,0.3525,0.7385,-0.634,-0.105,-0.4605,-0.2385,0.1145,-0.054,0.0,-0.0815,0.105,0.678,-0.3265
-0.9135,-0.534,0.3805,0.7235,-0.647,-0.077,-0.4585,-0.2195,0.144,-0.023,0.0235,-0.065,0.1175,0.701,-0.3475
-0.9125,-0.5165,0.3965,0.7145,-0.655,-0.06,-0.446,-0.1895,0.172,0.003,0.0425,-0.0525,0.1235,0.716,-0.3745
-0.919,-0.4945,0.425,0.7065,-0.672,-0.035,-0.438,-0.171,0.2,0.029,0.0615,-0.0415,0.1295,0.74,-0.395
-0.9255,-0.483,0.443,0.704,-0.684,-0.02,-0.433,-0.156,0.225,0.052,0.078,-0.0305,0.1365,0.759,-0.4115
-0.9245,-0.472,0.453,0.698,-0.689,-0.0095,-0.4255,-0.139,0.244,0.0665,0.0915,-0.021,0.141,0.769,-0.423
-0.922,-0.461,0.4615,0.6915,-0.692,0.0,-0.419,-0.12,0.2575,0.0755,0.0985,-0.015,0.1485,0.7775,-0.4305
-0.92,-0.451,0.4695,0.6855,-0.695,0.0095,-0.404,-0.0985,0.276,0.0895,0.1095,-0.0055,0.151,0.7815,-0.444
-0.923,-0.4365,0.4875,0.6795,-0.7055,0.0255,-0.3945,-0.0775,0.3005,0.1095,0.124,0.0035,0.152,0.799,-0.4575
-0.9195,-0.423,0.4965,0.671,-0.7085,0.037,-0.3955,-0.069,0.3155,0.1235,0.136,0.0135,0.159,0.8185,-0.4705
-0.91,-0.41,0.5005,0.66,-0.7055,0.045,-0.397,-0.0625,0.326,0.134,0.1475,0.0215,0.164,0.8275,-0.4845
-0.9055,-0.3925,0.5135,0.649,-0.7095,0.0605,-0.392,-0.054,0.342,0.152,0.162,0.0325,0.172,0.839,-0.496
-0.904,-0.3735,0.531,0.6385,-0.7175,0.0785,-0.381,-0.048,0.3565,0.17,0.1765,0.0455,0.1805,0.8485,-0.5005
-0.9125,-0.3595,0.5535,0.636,-0.7335,0.097,-0.3745,-0.0395,0.3695,0.1885,0.19,0.054,0.1855,0.8685,-0.5065
-0.925,-0.3455,0.5805,0.635,-0.753,0.1175,-0.3665,-0.0325,0.382,0.2065,0.206,0.0655,0.186,0.886,-0.523
-0.9255,-0.338,0.588,0.6315,-0.757,0.125,-0.351,-0.0155,0.401,0.224,0.2185,0.0725,0.1855,0.886,-0.544
-0.9225,-0.3235,0.5995,0.6225,-0.761,0.138,-0.3305,0.0235,0.4335,0.246,0.234,0.079,0.1925,0.898,-0.5635
-0.926,-0.3035,0.623,0.6145,-0.775,0.16,-0.3005,0.0755,0.4695,0.2675,0.25,0.088,0.1985,0.919,-0.5815
-0.9305,-0.291,0.64,0.6105,-0.7855,0.1745,-0.2615,0.1305,0.5115,0.289,0.26,0.0925,0.2005,0.936,-0.5975
-0.9335,-0.278,0.6565,0.6055,-0.7955,0.1895,-0.24,0.155,0.5475,0.307,0.2665,0.0945,0.1965,0.9485,-0.6255
-0.942,-0.266,0.676,0.604,-0.8095,0.205,-0.2115,0.1875,0.5955,0.3255,0.267,0.0915,0.1895,0.9615,-0.659
-0.9525,-0.2465,0.7065,0.5995,-0.83,0.23,-0.161,0.2425,0.655,0.3425,0.2655,0.087,0.182,0.98,-0.696
-0.967,-0.249,0.7185,0.608,-0.843,0.2345,-0.1125,0.2735,0.696,0.3395,0.2465,0.0715,0.159,0.9765,-0.731
-0.9875,-0.258,0.73,0.6225,-0.859,0.236,-0.073,0.3035,0.7505,0.342,0.2245,0.0485,0.134,0.9785,-0.7705
-1.002,-0.2425,0.7605,0.622,-0.8815,0.259,-0.0355,0.33,0.8185,0.363,0.218,0.037,0.1175,0.9975,-0.8245
-1.017,-0.225,0.7925,0.6205,-0.905,0.284,0.004,0.3395,0.88,0.386,0.2125,0.028,0.1045,1.013,-0.8775
-1.0365,-0.2015,0.835,0.6185,-0.936,0.3165,0.0115,0.295,0.914,0.405,0.211,0.0215,0.092,1.0345,-0.918
-1.0585,-0.1805,0.8785,0.619,-0.9685,0.349,-0.0045,0.196,0.912,0.4185,0.2145,0.023,0.081,1.0545,-0.94
-1.075,-0.152,0.9235,0.6135,-0.9995,0.3855,-0.025,0.0995,0.915,0.444,0.227,0.031,0.082,1.084,-0.9615
-1.087,-0.115,0.9725,0.6005,-1.03,0.429,-0.05,-0.024,0.894,0.4605,0.241,0.042,0.081,1.1205,-0.98
-1.1075,-0.0755,1.0325,0.5915,-1.0705,0.4785,-0.0785,-0.158,0.8665,0.475,0.254,0.0525,0.079,1.1575,-0.9985
-1.1135,-0.029,1.085,0.571,-1.0995,0.528,-0.1095,-0.2745,0.858,0.509,0.2785,0.0685,0.0865,1.196,-1.0275
-1.111,0.0235,1.1345,0.5435,-1.123,0.579,-0.1335,-0.386,0.8395,0.55,0.313,0.093,0.102,1.2325,-1.059
-1.127,0.084,1.2115,0.521,-1.1695,0.648,-0.1425,-0.5095,0.8185,0.596,0.3485,0.1145,0.1065,1.2765,-1.113
-1.155,0.143,1.299,0.5055,-1.227,0.721,-0.1465,-0.6665,0.778,0.621,0.3665,0.1205,0.0885,1.3305,-1.18
-1.178,0.195,1.3735,0.4915,-1.276,0.7845,-0.1545,-0.809,0.7465,0.656,0.391,0.134,0.084,1.3825,-1.2275
-1.206,0.2635,1.4695,0.471,-1.338,0.8665,-0.205,-0.9875,0.718,0.708,0.4345,0.162,0.0945,1.45,-1.263
-1.2345,0.335,1.57,0.4495,-1.4025,0.9525,-0.2785,-1.2,0.6745,0.765,0.4845,0.1935,0.11,1.5255,-1.294
-1.2435,0.3975,1.6415,0.4225,-1.4425,1.0195,-0.3465,-1.4095,0.6435,0.8555,0.556,0.236,0.1445,1.5815,-1.3285
-1.2465,0.47,1.717,0.388,-1.482,1.0935,-0.44,-1.6395,0.599,0.9465,0.6335,0.2835,0.1825,1.6355,-1.348
-1.247,0.548,1.796,0.3495,-1.522,1.172,-0.491,-1.823,0.547,1.0095,0.704,0.331,0.2145,1.7025,-1.357
-1.2525,0.6205,1.8735,0.3155,-1.563,1.247,-0.5115,-1.9605,0.527,1.0765,0.77,0.3725,0.247,1.7715,-1.3955
-1.256,0.6905,1.947,0.2825,-1.6015,1.319,-0.5525,-2.1145,0.4905,1.1385,0.838,0.416,0.273,1.835,-1.4305
-1.2545,0.7695,2.025,0.2425,-1.64,1.397,-0.5965,-2.269,0.4385,1.205,0.9195,0.4665,0.301,1.9055,-1.46
-1.2585,0.8275,2.0865,0.215,-1.6725,1.457,-0.6775,-2.435,0.357,1.276,0.998,0.5135,0.3405,1.956,-1.4635
-1.261,0.8725,2.134,0.194,-1.698,1.503,-0.782,-2.65,0.2095,1.3415,1.0795,0.561,0.3855,1.9995,-1.429
-1.2525,0.904,2.157,0.174,-1.705,1.5305,-0.8745,-2.844,0.069,1.4355,1.185,0.6205,0.4485,2.0315,-1.395
-1.2305,0.9285,2.1595,0.1505,-1.6955,1.544,-0.9725,-2.998,-0.0575,1.524,1.2975,0.6895,0.5165,2.038,-1.36
-1.185,0.9765,2.1625,0.104,-1.674,1.5695,-1.068,-3.111,-0.121,1.663,1.438,0.773,0.5995,2.0595,-1.3385
-1.1545,1.0065,2.161,0.0735,-1.658,1.584,-1.149,-3.2005,-0.177,1.813,1.5785,0.851,0.683,2.0855,-1.318
-1.1465,1.0095,2.156,0.068,-1.6515,1.5825,-1.231,-3.3015,-0.3085,1.8745,1.668,0.9,0.7315,2.094,-1.279
-1.1095,1.024,2.134,0.0425,-1.622,1.579,-1.3435,-3.381,-0.396,1.969,1.7745,0.9605,0.8015,2.0975,-1.238
-1.075,1.0595,2.135,0.0075,-1.605,1.597,-1.463,-3.471,-0.4865,2.0865,1.8995,1.0325,0.8795,2.1195,-1.1925
-1.05,1.0955,2.146,-0.023,-1.5985,1.621,-1.597,-3.5935,-0.6725,2.1315,1.998,1.1,0.934,2.1385,-1.1245
-1.0245,1.116,2.141,-0.046,-1.583,1.6285,-1.734,-3.692,-0.8395,2.17,2.0765,1.152,0.986,2.147,-1.0505
-1.0055,1.1335,2.139,-0.064,-1.5725,1.6365,-1.853,-3.7815,-0.9765,2.209,2.1325,1.186,1.025,2.159,-0.9715
-0.9895,1.1455,2.1355,-0.0785,-1.5625,1.6405,-1.9685,-3.8655,-1.123,2.2235,2.182,1.2215,1.063,2.1675,-0.879
-0.9765,1.146,2.123,-0.085,-1.55,1.6345,-2.043,-3.9075,-1.249,2.228,2.223,1.2515,1.0965,2.168,-0.789
-0.966,1.1745,2.141,-0.1045,-1.5535,1.658,-2.1395,-3.9585,-1.3705,2.23,2.2475,1.2755,1.107,2.1885,-0.7285
-0.943,1.192,2.1355,-0.1245,-1.5395,1.6635,-2.2365,-3.979,-1.439,2.2315,2.248,1.2855,1.1165,2.1975,-0.6735
-0.926,1.187,2.1135,-0.1305,-1.52,1.65,-2.307,-3.9895,-1.514,2.1975,2.2315,1.292,1.1195,2.1815,-0.605
-0.919,1.1865,2.106,-0.134,-1.513,1.6465,-2.3805,-3.997,-1.577,2.1625,2.198,1.2875,1.107,2.178,-0.5305
-0.919,1.17,2.0895,-0.126,-1.5045,1.6295,-2.445,-3.986,-1.6335,2.099,2.1295,1.2545,1.071,2.1705,-0.462
-0.9395,1.147,2.0865,-0.104,-1.513,1.6165,-2.4835,-3.983,-1.7325,1.9655,2.038,1.2095,1.012,2.1515,-0.416
-0.945,1.126,2.0715,-0.0905,-1.5085,1.599,-2.5165,-3.9525,-1.784,1.861,1.948,1.1635,0.9565,2.1285,-0.3785
-0.96,1.101,2.0615,-0.071,-1.511,1.5815,-2.57,-3.922,-1.836,1.7615,1.8485,1.107,0.8925,2.1085,-0.344
-0.979,1.02,1.9995,-0.0205,-1.4895,1.51,-2.57,-3.8525,-1.87,1.6305,1.723,1.0315,0.8275,2.041,-0.287
-0.986,0.901,1.8875,0.0425,-1.437,1.3945,-2.529,-3.741,-1.8745,1.492,1.5995,0.9585,0.767,1.943,-0.212
-1.004,0.7715,1.776,0.116,-1.39,1.2735,-2.464,-3.6205,-1.9065,1.3015,1.465,0.878,0.6925,1.8435,-0.1225
-0.998,0.653,1.652,0.1725,-1.325,1.1525,-2.42,-3.4945,-1.9245,1.1345,1.353,0.8085,0.639,1.7365,-0.034
-0.983,0.558,1.5415,0.2125,-1.2625,1.05,-2.41,-3.3765,-1.932,0.982,1.2555,0.7515,0.5955,1.6425,0.0485
-0.9905,0.455,1.4455,0.2675,-1.218,0.9505,-2.3795,-3.281,-1.998,0.719,1.11,0.6765,0.5205,1.5525,0.1575
-1.0325,0.359,1.3925,0.3365,-1.213,0.876,-2.354,-3.234,-2.1755,0.2605,0.89,0.574,0.3915,1.481,0.2785
-1.09,0.2765,1.367,0.4065,-1.2285,0.8215,-2.3185,-3.1955,-2.418,-0.3605,0.6115,0.451,0.224,1.4175,0.4095
-1.115,0.193,1.3085,0.4605,-1.212,0.751,-2.279,-3.1175,-2.5475,-0.8185,0.3905,0.353,0.11,1.3465,0.523
-1.1275,0.1025,1.2305,0.5125,-1.179,0.6665,-2.2305,-3.014,-2.573,-1.1,0.1985,0.2655,0.0245,1.26,0.6135
-1.131,0.03,1.1615,0.55,-1.1465,0.596,-2.187,-2.9175,-2.576,-1.3065,0.0315,0.189,-0.0455,1.1885,0.692
-1.123,-0.0395,1.0845,0.581,-1.104,0.5225,-2.1395,-2.795,-2.51,-1.3985,-0.09,0.122,-0.088,1.1285,0.7345
-1.1165,-0.1195,0.9975,0.618,-1.0575,0.439,-2.0635,-2.65,-2.4295,-1.513,-0.243,0.041,-0.1425,1.0555,0.774
-1.1055,-0.173,0.933,0.639,-1.0195,0.38,-2.0085,-2.5355,-2.3605,-1.5795,-0.3435,-0.0135,-0.18,1.007,0.796
-1.096,-0.2305,0.866,0.663,-0.981,0.318,-1.955,-2.43,-2.275,-1.5655,-0.388,-0.05,-0.1965,0.9495,0.7945
-1.092,-0.298,0.7945,0.695,-0.9435,0.248,-1.885,-2.315,-2.1825,-1.55,-0.438,-0.0955,-0.22,0.883,0.7845
-1.0915,-0.3675,0.7245,0.7295,-0.9085,0.1785,-1.8135,-2.201,-2.0945,-1.5405,-0.488,-0.1445,-0.2485,0.818,0.7725
-1.076,-0.445,0.632,0.76,-0.854,0.0935,-1.732,-2.0675,-1.987,-1.5175,-0.531,-0.19,-0.2585,0.744,0.7685
-1.0665,-0.503,0.5635,0.7845,-0.8155,0.0305,-1.664,-1.952,-1.889,-1.4865,-0.562,-0.225,-0.2695,0.6935,0.753
-1.066,-0.554,0.513,0.81,-0.79,-0.0205,-1.6095,-1.868,-1.8205,-1.4735,-0.595,-0.259,-0.2855,0.652,0.738
-1.0605,-0.5975,0.4635,0.8285,-0.762,-0.067,-1.5465,-1.7795,-1.7445,-1.452,-0.628,-0.2945,-0.305,0.6035,0.7175
-1.062,-0.6195,0.4425,0.8405,-0.7525,-0.0885,-1.493,-1.7025,-1.676,-1.427,-0.653,-0.3225,-0.326,0.5735,0.6855
-1.0755,-0.653,0.4225,0.864,-0.749,-0.1155,-1.433,-1.618,-1.601,-1.4,-0.6825,-0.3615,-0.3515,0.555,0.6615
-1.082,-0.6945,0.388,0.888,-0.7355,-0.153,-1.366,-1.527,-1.524,-1.3765,-0.7215,-0.41,-0.3815,0.523,0.644
-1.079,-0.736,0.3435,0.9075,-0.7115,-0.196,-1.3065,-1.4485,-1.4555,-1.3515,-0.7425,-0.4395,-0.3895,0.485,0.613
-1.0795,-0.7685,0.3115,0.924,-0.696,-0.2285,-1.245,-1.371,-1.3865,-1.32,-0.7465,-0.4575,-0.391,0.447,0.58
-1.0755,-0.7945,0.2815,0.9345,-0.6785,-0.2565,-1.19,-1.299,-1.325,-1.2925,-0.753,-0.4775,-0.396,0.418,0.5605
-1.072,-0.8205,0.252,0.946,-0.6625,-0.284,-1.146,-1.244,-1.2775,-1.274,-0.759,-0.495,-0.4045,0.395,0.538
-1.0605,-0.8345,0.226,0.9475,-0.6435,-0.304,-1.1075,-1.189,-1.2275,-1.2475,-0.7525,-0.4995,-0.397,0.374,0.5185
-1.039,-0.8585,0.1805,0.9485,-0.61,-0.339,-1.0625,-1.1185,-1.16,-1.207,-0.735,-0.495,-0.378,0.346,0.496
-1.03,-0.886,0.1445,0.958,-0.5875,-0.371,-1.013,-1.052,-1.095,-1.1675,-0.7195,-0.4915,-0.362,0.3115,0.4645
-1.023,-0.906,0.117,0.9645,-0.5705,-0.3945,-0.9675,-0.988,-1.0355,-1.129,-0.708,-0.492,-0.343,0.2875,0.4355
-1.004,-0.9255,0.079,0.9645,-0.542,-0.423,-0.9215,-0.9255,-0.977,-1.09,-0.698,-0.4935,-0.33,0.2625,0.4115
-0.994,-0.948,0.0465,0.971,-0.5205,-0.4505,-0.877,-0.871,-0.9255,-1.056,-0.69,-0.4965,-0.3215,0.238,0.387
-0.985,-0.967,0.0185,0.9755,-0.502,-0.474,-0.8365,-0.817,-0.8755,-1.0245,-0.681,-0.4975,-0.311,0.2175,0.363
-0.9765,-0.987,-0.0095,0.9815,-0.4835,-0.4985,-0.7895,-0.7555,-0.8155,-0.9895,-0.669,-0.4975,-0.2985,0.189,0.3345
-0.9685,-1.0155,-0.0465,0.992,-0.4615,-0.531,-0.7305,-0.6785,-0.742,-0.9435,-0.6495,-0.4955,-0.276,0.149,0.3015
-0.9415,-1.049,-0.107,0.995,-0.418,-0.578,-0.6705,-0.598,-0.6695,-0.8945,-0.629,-0.489,-0.2415,0.0995,0.2865
-0.923,-1.0785,-0.155,1.0005,-0.3845,-0.6165,-0.619,-0.5285,-0.6055,-0.8495,-0.606,-0.476,-0.215,0.0545,0.2505
-0.916,-1.102,-0.185,1.009,-0.366,-0.6435,-0.5745,-0.469,-0.547,-0.8085,-0.585,-0.47,-0.1925,0.0265,0.2165
-0.9045,-1.1245,-0.2195,1.0145,-0.343,-0.672,-0.539,-0.4245,-0.508,-0.785,-0.5775,-0.4695,-0.1745,0.006,0.213
-0.894,-1.147,-0.2525,1.02,-0.321,-0.6995,-0.5075,-0.3885,-0.48,-0.7715,-0.5725,-0.465,-0.1645,-0.007,0.214
-0.881,-1.159,-0.2775,1.0195,-0.302,-0.718,-0.484,-0.3565,-0.4525,-0.756,-0.568,-0.464,-0.1535,-0.0245,0.2105
-0.871,-1.161,-0.2895,1.016,-0.291,-0.7255,-0.4675,-0.334,-0.4325,-0.744,-0.5625,-0.4585,-0.1445,-0.0355,0.2015
-0.8695,-1.167,-0.297,1.018,-0.2865,-0.732,-0.4565,-0.319,-0.4205,-0.738,-0.5625,-0.4595,-0.142,-0.0385,0.202
-0.8715,-1.171,-0.2995,1.021,-0.286,-0.735,-0.4505,-0.3065,-0.41,-0.7345,-0.5625,-0.4615,-0.14,-0.043,0.1965
-0.866,-1.1745,-0.308,1.02,-0.2795,-0.7415,-0.4385,-0.29,-0.3965,-0.7275,-0.5595,-0.4595,-0.1305,-0.047,0.1955
-0.855,-1.179,-0.324,1.017,-0.266,-0.7515,-0.4255,-0.276,-0.3835,-0.722,-0.5585,-0.4605,-0.1295,-0.055,0.193
-0.85,-1.1855,-0.3355,1.0175,-0.2575,-0.7605,-0.417,-0.2645,-0.375,-0.719,-0.558,-0.4625,-0.134,-0.061,0.1965
-0.843,-1.188,-0.3445,1.015,-0.2495,-0.7665,-0.405,-0.249,-0.3615,-0.7095,-0.552,-0.46,-0.129,-0.07,0.192
-0.836,-1.1875,-0.351,1.0115,-0.2425,-0.769,-0.398,-0.236,-0.352,-0.704,-0.5495,-0.456,-0.1245,-0.075,0.183
-0.831,-1.189,-0.357,1.0095,-0.237,-0.773,-0.394,-0.23,-0.3475,-0.707,-0.5555,-0.4595,-0.126,-0.078,0.1815
-0.8305,-1.1945,-0.3635,1.012,-0.2335,-0.779,-0.387,-0.22,-0.341,-0.7025,-0.555,-0.461,-0.124,-0.081,0.178
-0.836,-1.198,-0.3615,1.0165,-0.2375,-0.7795,-0.3825,-0.2095,-0.3345,-0.694,-0.5535,-0.4615,-0.119,-0.084,0.1815
-0.8385,-1.2,-0.361,1.019,-0.239,-0.7805,-0.376,-0.2035,-0.329,-0.6925,-0.5545,-0.4625,-0.119,-0.0875,0.1745
-0.84,-1.213,-0.373,1.0265,-0.234,-0.793,-0.3745,-0.199,-0.328,-0.6955,-0.557,-0.4645,-0.121,-0.093,0.169
-0.8475,-1.2215,-0.3735,1.034,-0.237,-0.7975,-0.3745,-0.1945,-0.3265,-0.6985,-0.562,-0.4705,-0.1195,-0.0965,0.1675
-0.855,-1.2285,-0.373,1.0415,-0.2415,-0.801,-0.3735,-0.1895,-0.324,-0.702,-0.5645,-0.474,-0.116,-0.09,0.177
-0.8555,-1.237,-0.3805,1.046,-0.238,-0.809,-0.3675,-0.1835,-0.3215,-0.705,-0.5675,-0.4765,-0.116,-0.096,0.182
-0.8545,-1.2335,-0.3785,1.044,-0.2385,-0.806,-0.363,-0.1785,-0.3195,-0.7085,-0.5715,-0.479,-0.1155,-0.097,0.178
-0.848,-1.2255,-0.377,1.0365,-0.2355,-0.8015,-0.361,-0.1725,-0.316,-0.7095,-0.57,-0.4775,-0.1125,-0.1,0.1795
-0.842,-1.2255,-0.383,1.0335,-0.23,-0.804,-0.355,-0.165,-0.3095,-0.7105,-0.568,-0.4765,-0.113,-0.1035,0.184
-0.842,-1.2255,-0.383,1.0335,-0.2295,-0.804,-0.3535,-0.162,-0.3075,-0.7105,-0.57,-0.4795,-0.1135,-0.098,0.186
-0.84,-1.227,-0.3865,1.0335,-0.2275,-0.8065,-0.3505,-0.157,-0.3045,-0.71,-0.5705,-0.4795,-0.1145,-0.1,0.186
-0.8445,-1.2415,-0.3965,1.043,-0.2245,-0.819,-0.3455,-0.15,-0.3005,-0.708,-0.571,-0.4795,-0.1185,-0.1055,0.194
-0.8425,-1.242,-0.399,1.042,-0.222,-0.8205,-0.3405,-0.143,-0.297,-0.7035,-0.5705,-0.478,-0.1195,-0.1125,0.185
-0.8335,-1.2375,-0.4035,1.035,-0.215,-0.8205,-0.337,-0.135,-0.2935,-0.7005,-0.5685,-0.4765,-0.119,-0.115,0.176
-0.8235,-1.237,-0.413,1.03,-0.2055,-0.825,-0.3325,-0.131,-0.2905,-0.6925,-0.567,-0.4755,-0.1145,-0.117,0.181
-0.8225,-1.237,-0.414,1.0295,-0.2045,-0.8255,-0.331,-0.126,-0.2885,-0.693,-0.5695,-0.4775,-0.1175,-0.1205,0.181
-0.8295,-1.2475,-0.4175,1.038,-0.206,-0.8325,-0.331,-0.1195,-0.287,-0.697,-0.5715,-0.48,-0.1235,-0.129,0.181
-0.8235,-1.244,-0.4195,1.0335,-0.2025,-0.8315,-0.3235,-0.1125,-0.2825,-0.696,-0.57,-0.4785,-0.12,-0.1285,0.1785
-0.821,-1.2465,-0.425,1.0335,-0.198,-0.836,-0.3215,-0.1085,-0.284,-0.701,-0.574,-0.484,-0.1205,-0.132,0.1775
-0.822,-1.255,-0.4325,1.038,-0.195,-0.8435,-0.323,-0.106,-0.2855,-0.7045,-0.5775,-0.4885,-0.1195,-0.1395,0.175
-0.8165,-1.249,-0.432,1.0325,-0.1925,-0.8405,-0.32,-0.1,-0.283,-0.704,-0.5775,-0.4885,-0.1175,-0.1335,0.175
-0.8145,-1.2525,-0.437,1.033,-0.189,-0.8445,-0.3175,-0.0935,-0.2815,-0.705,-0.5775,-0.488,-0.1205,-0.138,0.1715
-0.8225,-1.2645,-0.442,1.0435,-0.1905,-0.8535,-0.3185,-0.0935,-0.2825,-0.7085,-0.5815,-0.492,-0.1205,-0.144,0.167
-0.8325,-1.2695,-0.4365,1.051,-0.198,-0.853,-0.3195,-0.0925,-0.284,-0.7125,-0.5855,-0.4955,-0.117,-0.1405,0.1655
-0.833,-1.2655,-0.432,1.049,-0.2005,-0.8485,-0.3175,-0.087,-0.2825,-0.715,-0.5885,-0.4995,-0.1205,-0.1375,0.1655
-0.8245,-1.264,-0.4395,1.044,-0.193,-0.8515,-0.313,-0.079,-0.278,-0.714,-0.5885,-0.5005,-0.123,-0.1425,0.17
-0.8225,-1.2645,-0.4415,1.0435,-0.191,-0.853,-0.311,-0.0765,-0.2785,-0.719,-0.591,-0.502,-0.1205,-0.147,0.174
-0.825,-1.265,-0.439,1.0445,-0.193,-0.852,-0.309,-0.072,-0.2765,-0.7215,-0.593,-0.5045,-0.1205,-0.15,0.175
-0.8185,-1.2645,-0.4455,1.0415,-0.187,-0.855,-0.3055,-0.0645,-0.2735,-0.719,-0.5945,-0.5015,-0.118,-0.151,0.176
-0.8155,-1.271,-0.4555,1.043,-0.1805,-0.8635,-0.3065,-0.0615,-0.275,-0.724,-0.5995,-0.5035,-0.118,-0.155,0.1785
-0.816,-1.277,-0.4605,1.0465,-0.178,-0.8685,-0.302,-0.055,-0.274,-0.7255,-0.6005,-0.505,-0.1205,-0.159,0.1775
-0.8095,-1.2755,-0.4655,1.042,-0.172,-0.8705,-0.296,-0.0475,-0.2705,-0.725,-0.6015,-0.5055,-0.1175,-0.167,0.1785
-0.813,-1.275,-0.4615,1.0435,-0.176,-0.868,-0.2915,-0.0385,-0.2645,-0.7235,-0.5995,-0.503,-0.116,-0.1705,0.1725
-0.8175,-1.2785,-0.4605,1.048,-0.179,-0.8695,-0.292,-0.0345,-0.2645,-0.7275,-0.6,-0.5015,-0.1175,-0.172,0.1695
-0.8105,-1.28,-0.469,1.045,-0.171,-0.8745,-0.286,-0.028,-0.262,-0.726,-0.5995,-0.4995,-0.1125,-0.177,0.1715
-0.8045,-1.277,-0.472,1.0405,-0.1665,-0.8745,-0.2805,-0.018,-0.258,-0.7245,-0.599,-0.498,-0.106,-0.183,0.1715
-0.799,-1.2785,-0.4785,1.0385,-0.1605,-0.8785,-0.2805,-0.011,-0.2555,-0.7255,-0.6015,-0.499,-0.11,-0.192,0.172
-0.8055,-1.285,-0.479,1.045,-0.1635,-0.882,-0.277,-0.006,-0.2545,-0.727,-0.603,-0.5005,-0.115,-0.1875,0.1725
-0.8055,-1.2895,-0.4835,1.0475,-0.161,-0.887,-0.2785,-0.003,-0.258,-0.7335,-0.608,-0.5055,-0.1135,-0.1895,0.173
-0.7885,-1.283,-0.494,1.0355,-0.1475,-0.8885,-0.2785,0.0035,-0.253,-0.7335,-0.609,-0.506,-0.113,-0.1855,0.182
-0.793,-1.296,-0.502,1.044,-0.1455,-0.899,-0.276,0.009,-0.2545,-0.7405,-0.615,-0.511,-0.117,-0.1885,0.1905
-0.801,-1.3085,-0.507,1.0545,-0.147,-0.9075,-0.2745,0.015,-0.255,-0.7455,-0.62,-0.5165,-0.1205,-0.2015,0.187
-0.798,-1.3105,-0.512,1.054,-0.143,-0.9115,-0.273,0.0235,-0.2515,-0.7445,-0.622,-0.5165,-0.1205,-0.209,0.1825
-0.807,-1.324,-0.5165,1.0655,-0.1455,-0.92,-0.273,0.029,-0.2525,-0.7505,-0.6275,-0.523,-0.123,-0.2125,0.1785
-0.812,-1.3275,-0.5145,1.0695,-0.149,-0.921,-0.2715,0.033,-0.2535,-0.757,-0.634,-0.5305,-0.1265,-0.2065,0.1895
-0.808,-1.3305,-0.522,1.069,-0.143,-0.9265,-0.272,0.042,-0.252,-0.76,-0.6375,-0.5305,-0.1255,-0.2085,0.2065
-0.809,-1.3315,-0.522,1.07,-0.1435,-0.927,-0.2775,0.0465,-0.253,-0.7655,-0.64,-0.5335,-0.1265,-0.201,0.2115
-0.806,-1.33,-0.5235,1.068,-0.1415,-0.9265,-0.2675,0.054,-0.2515,-0.768,-0.645,-0.5375,-0.1295,-0.204,0.2115
-0.7985,-1.334,-0.5345,1.066,-0.132,-0.934,-0.26,0.066,-0.2455,-0.768,-0.6465,-0.537,-0.1275,-0.2205,0.206
-0.796,-1.337,-0.5405,1.066,-0.128,-0.939,-0.2605,0.0755,-0.241,-0.769,-0.647,-0.535,-0.122,-0.225,0.2085
-0.7955,-1.341,-0.545,1.068,-0.1255,-0.943,-0.253,0.0885,-0.2345,-0.767,-0.646,-0.5335,-0.1165,-0.2255,0.215
-0.799,-1.348,-0.548,1.0735,-0.1255,-0.948,-0.252,0.097,-0.234,-0.77,-0.6525,-0.539,-0.125,-0.227,0.2135
-0.8015,-1.3585,-0.5565,1.08,-0.123,-0.9575,-0.252,0.104,-0.237,-0.777,-0.662,-0.547,-0.1345,-0.2335,0.2205
-0.7975,-1.3605,-0.5625,1.079,-0.118,-0.9615,-0.251,0.1135,-0.235,-0.7785,-0.666,-0.549,-0.1315,-0.2385,0.2165
-0.7935,-1.362,-0.5675,1.077,-0.113,-0.9645,-0.2475,0.124,-0.234,-0.7805,-0.668,-0.5485,-0.131,-0.2375,0.2085
-0.7955,-1.369,-0.573,1.082,-0.1115,-0.971,-0.2405,0.136,-0.23,-0.7825,-0.671,-0.552,-0.1325,-0.2415,0.2165
-0.793,-1.371,-0.5775,1.0815,-0.108,-0.9745,-0.234,0.15,-0.2225,-0.78,-0.6715,-0.5515,-0.13,-0.2465,0.2245
-0.79,-1.381,-0.5905,1.0855,-0.1,-0.986,-0.2315,0.1605,-0.219,-0.7825,-0.6745,-0.553,-0.1265,-0.2555,0.2315
-0.7865,-1.3825,-0.5955,1.084,-0.0955,-0.989,-0.2305,0.171,-0.213,-0.783,-0.676,-0.5545,-0.125,-0.267,0.2255
-0.7745,-1.377,-0.602,1.0755,-0.0865,-0.9895,-0.2285,0.182,-0.21,-0.7845,-0.6795,-0.558,-0.127,-0.27,0.2265
-0.766,-1.3785,-0.612,1.072,-0.077,-0.9955,-0.224,0.1935,-0.205,-0.786,-0.6825,-0.5605,-0.1275,-0.2675,0.235
-0.765,-1.3855,-0.62,1.075,-0.073,-1.0025,-0.216,0.2085,-0.1975,-0.783,-0.681,-0.5585,-0.1285,-0.2665,0.238
-0.7645,-1.399,-0.634,1.082,-0.0655,-1.0165,-0.209,0.222,-0.1935,-0.786,-0.685,-0.5615,-0.13,-0.2825,0.243
-0.7635,-1.4025,-0.639,1.083,-0.0625,-1.0205,-0.2055,0.236,-0.184,-0.787,-0.6855,-0.5615,-0.1295,-0.295,0.23
-0.7705,-1.405,-0.6345,1.0875,-0.0685,-1.0195,-0.204,0.2475,-0.181,-0.7925,-0.6895,-0.566,-0.132,-0.2935,0.219
-0.767,-1.4065,-0.6385,1.0865,-0.0645,-1.0225,-0.2,0.26,-0.1765,-0.796,-0.696,-0.5715,-0.131,-0.298,0.223
-0.7625,-1.414,-0.651,1.088,-0.056,-1.0325,-0.1965,0.2745,-0.1725,-0.797,-0.699,-0.5755,-0.131,-0.309,0.2325
-0.7545,-1.417,-0.662,1.0855,-0.0465,-1.0395,-0.1905,0.2905,-0.166,-0.797,-0.698,-0.573,-0.13,-0.3095,0.238
-0.742,-1.4145,-0.672,1.078,-0.035,-1.0435,-0.183,0.3085,-0.154,-0.7925,-0.6965,-0.5695,-0.1255,-0.3105,0.2375
-0.738,-1.4205,-0.682,1.079,-0.028,-1.051,-0.1775,0.323,-0.1495,-0.7945,-0.7,-0.5725,-0.126,-0.325,0.242
-0.7325,-1.422,-0.689,1.077,-0.022,-1.0555,-0.17,0.3405,-0.14,-0.792,-0.7005,-0.5725,-0.126,-0.3315,0.241
-0.729,-1.427,-0.698,1.0775,-0.0155,-1.0625,-0.161,0.3595,-0.13,-0.788,-0.6995,-0.5705,-0.126,-0.335,0.239
-0.728,-1.4345,-0.706,1.081,-0.0115,-1.0705,-0.1575,0.3735,-0.124,-0.787,-0.7025,-0.5725,-0.1235,-0.339,0.2375
-0.7225,-1.4405,-0.7175,1.0815,-0.003,-1.079,-0.1535,0.388,-0.1165,-0.7835,-0.7035,-0.573,-0.1185,-0.3405,0.2425
-0.7135,-1.4465,-0.7325,1.0795,0.0095,-1.0895,-0.149,0.402,-0.1095,-0.784,-0.706,-0.5735,-0.1145,-0.353,0.25
-0.717,-1.4565,-0.739,1.086,0.011,-1.0975,-0.1485,0.4135,-0.107,-0.789,-0.7115,-0.5795,-0.114,-0.356,0.2515
-0.7155,-1.463,-0.747,1.089,0.0155,-1.105,-0.1425,0.4295,-0.099,-0.7885,-0.7135,-0.5805,-0.111,-0.3555,0.2575
-0.714,-1.4665,-0.752,1.09,0.0185,-1.109,-0.1375,0.444,-0.0925,-0.789,-0.716,-0.5825,-0.1065,-0.361,0.263
-0.7125,-1.467,-0.754,1.0895,0.0205,-1.1105,-0.131,0.46,-0.085,-0.789,-0.718,-0.585,-0.107,-0.365,0.261
-0.7045,-1.468,-0.763,1.086,0.029,-1.1155,-0.122,0.478,-0.0735,-0.7855,-0.717,-0.585,-0.1045,-0.367,0.2585
-0.6985,-1.4695,-0.7705,1.0835,0.0355,-1.12,-0.118,0.4935,-0.0655,-0.785,-0.7185,-0.586,-0.1,-0.3655,0.2635
-0.689,-1.471,-0.7815,1.08,0.046,-1.1265,-0.1155,0.509,-0.0555,-0.782,-0.716,-0.585,-0.0935,-0.3745,0.2695
-0.679,-1.4735,-0.7935,1.076,0.057,-1.1335,-0.1105,0.5245,-0.0455,-0.781,-0.7165,-0.585,-0.0935,-0.38,0.269
-0.6815,-1.4805,-0.7985,1.0805,0.0585,-1.1395,-0.1075,0.5375,-0.0385,-0.7815,-0.7205,-0.5885,-0.0965,-0.384,0.265
-0.6905,-1.491,-0.7995,1.0905,0.054,-1.145,-0.1085,0.548,-0.033,-0.7835,-0.725,-0.5945,-0.097,-0.3885,0.263
-0.689,-1.4945,-0.8045,1.0915,0.0575,-1.1495,-0.102,0.561,-0.025,-0.7835,-0.728,-0.5975,-0.0975,-0.392,0.26
-0.685,-1.498,-0.8125,1.091,0.0635,-1.1555,-0.098,0.574,-0.0185,-0.781,-0.728,-0.5985,-0.091,-0.3985,0.2635
-0.6735,-1.4935,-0.8195,1.083,0.073,-1.1565,-0.0945,0.5875,-0.0085,-0.775,-0.7285,-0.5965,-0.0865,-0.397,0.267
-0.668,-1.4935,-0.8255,1.0805,0.0785,-1.1595,-0.087,0.6025,0.0015,-0.769,-0.7275,-0.594,-0.088,-0.3975,0.262
-0.664,-1.498,-0.834,1.081,0.085,-1.166,-0.08,0.615,0.0095,-0.7665,-0.7265,-0.5935,-0.086,-0.401,0.2685
-0.658,-1.5,-0.8415,1.079,0.0915,-1.1705,-0.072,0.629,0.0215,-0.759,-0.7225,-0.5935,-0.082,-0.4055,0.268
-0.658,-1.502,-0.8435,1.08,0.0925,-1.173,-0.0685,0.6415,0.0325,-0.755,-0.7205,-0.5925,-0.078,-0.411,0.2645
-0.658,-1.5095,-0.8505,1.0835,0.096,-1.18,-0.0665,0.6505,0.0395,-0.7565,-0.7225,-0.5935,-0.0775,-0.4155,0.27
-0.6495,-1.5065,-0.8565,1.078,0.103,-1.1815,-0.064,0.6585,0.0465,-0.7525,-0.719,-0.592,-0.075,-0.4175,0.268
-0.632,-1.497,-0.8645,1.0645,0.116,-1.181,-0.0625,0.6675,0.0555,-0.7495,-0.716,-0.588,-0.0665,-0.423,0.267
-0.627,-1.5045,-0.877,1.0655,0.1245,-1.1905,-0.06,0.6765,0.0645,-0.7495,-0.7145,-0.5905,-0.064,-0.4265,0.2635
-0.6225,-1.508,-0.885,1.065,0.131,-1.1965,-0.056,0.6875,0.0745,-0.7425,-0.709,-0.5875,-0.0605,-0.426,0.266
-0.6165,-1.508,-0.891,1.062,0.137,-1.1995,-0.055,0.6965,0.083,-0.7365,-0.7065,-0.5855,-0.06,-0.4325,0.2715
-0.6095,-1.5055,-0.8955,1.057,0.1425,-1.2005,-0.054,0.703,0.09,-0.731,-0.704,-0.5845,-0.0605,-0.433,0.262
-0.6005,-1.497,-0.896,1.0485,0.1475,-1.1965,-0.05,0.712,0.0995,-0.722,-0.698,-0.5815,-0.057,-0.4315,0.247
-0.591,-1.491,-0.8995,1.041,0.154,-1.195,-0.0505,0.718,0.1075,-0.712,-0.694,-0.581,-0.0535,-0.4345,0.245
-0.583,-1.491,-0.9075,1.037,0.162,-1.1995,-0.0515,0.724,0.1155,-0.699,-0.6885,-0.5765,-0.048,-0.4445,0.246
-0.58,-1.486,-0.9055,1.0325,0.1625,-1.1955,-0.05,0.7305,0.125,-0.689,-0.682,-0.5725,-0.0495,-0.4505,0.235
-0.5795,-1.482,-0.902,1.031,0.161,-1.192,-0.0485,0.7375,0.135,-0.6805,-0.6755,-0.568,-0.0475,-0.442,0.2375
-0.5835,-1.481,-0.8975,1.032,0.157,-1.1895,-0.048,0.7415,0.1425,-0.6755,-0.671,-0.5665,-0.0435,-0.4375,0.231
-0.582,-1.476,-0.8935,1.029,0.1555,-1.1845,-0.05,0.741,0.145,-0.672,-0.672,-0.568,-0.044,-0.427,0.233
-0.5775,-1.469,-0.891,1.023,0.1565,-1.18,-0.056,0.74,0.1475,-0.668,-0.671,-0.566,-0.0395,-0.411,0.243
-0.5725,-1.4615,-0.888,1.0165,0.1575,-1.1745,-0.055,0.743,0.1555,-0.6575,-0.66,-0.5615,-0.0345,-0.409,0.2385
-0.57,-1.461,-0.8905,1.015,0.16,-1.176,-0.0575,0.746,0.1635,-0.645,-0.649,-0.5565,-0.0335,-0.408,0.242
-0.564,-1.458,-0.8935,1.011,0.1645,-1.176,-0.067,0.7405,0.1665,-0.639,-0.6455,-0.552,-0.0265,-0.404,0.2405
-0.5545,-1.4485,-0.893,1.001,0.169,-1.171,-0.0675,0.7385,0.173,-0.629,-0.6375,-0.547,-0.018,-0.406,0.23
-0.5545,-1.447,-0.892,1.0005,0.1685,-1.1695,-0.067,0.739,0.1795,-0.6175,-0.6315,-0.544,-0.015,-0.405,0.2275
-0.557,-1.4415,-0.8845,0.999,0.1635,-1.163,-0.0705,0.737,0.186,-0.608,-0.6235,-0.539,-0.009,-0.388,0.2375
-0.558,-1.4275,-0.869,0.9925,0.1555,-1.1485,-0.076,0.733,0.192,-0.596,-0.613,-0.53,-0.0045,-0.3705,0.238
-0.5525,-1.4155,-0.863,0.9835,0.155,-1.139,-0.081,0.727,0.196,-0.585,-0.604,-0.5225,0.0015,-0.3605,0.2365
-0.558,-1.4095,-0.851,0.9835,0.1465,-1.1305,-0.084,0.7215,0.2,-0.5755,-0.597,-0.5215,0.001,-0.3485,0.2285
-0.5585,-1.4145,-0.8555,0.9865,0.1485,-1.135,-0.09,0.718,0.206,-0.563,-0.587,-0.516,0.0045,-0.35,0.2265
-0.5445,-1.4045,-0.86,0.9745,0.1575,-1.1325,-0.0965,0.711,0.209,-0.553,-0.5775,-0.51,0.0145,-0.3505,0.2275
-0.535,-1.389,-0.854,0.962,0.159,-1.1215,-0.1025,0.703,0.212,-0.543,-0.569,-0.505,0.0205,-0.349,0.22
-0.523,-1.383,-0.86,0.953,0.168,-1.1215,-0.107,0.6995,0.2185,-0.5285,-0.5555,-0.493,0.029,-0.352,0.216
-0.5205,-1.374,-0.853,0.947,0.166,-1.1135,-0.1095,0.689,0.22,-0.5175,-0.546,-0.486,0.035,-0.3445,0.207
-0.516,-1.3595,-0.843,0.9375,0.163,-1.101,-0.116,0.68,0.2235,-0.506,-0.535,-0.477,0.043,-0.3315,0.2005
-0.516,-1.345,-0.829,0.93,0.156,-1.087,-0.1235,0.6705,0.225,-0.4945,-0.5225,-0.4685,0.05,-0.3265,0.186
-0.5235,-1.339,-0.815,0.931,0.1455,-1.077,-0.1255,0.66,0.226,-0.484,-0.514,-0.466,0.0495,-0.321,0.1725
-0.526,-1.3325,-0.8065,0.929,0.14,-1.0695,-0.1295,0.651,0.2295,-0.4725,-0.5045,-0.46,0.0495,-0.303,0.175
-0.53,-1.3265,-0.796,0.928,0.133,-1.061,-0.1425,0.6345,0.228,-0.466,-0.4975,-0.4545,0.0565,-0.2935,0.1765
