i,ii,iii,avr,avl,avf,v1,v2,v3,v4,v5,v6,vx,vy,vz
-0.7405,-0.3325,0.408,0.5365,-0.574,0.0375,-0.0415,0.112,0.3775,-0.028,0.066,-0.071,0.207,0.1725,-0.14
-0.7415,-0.327,0.4145,0.5345,-0.578,0.0435,-0.0425,0.0935,0.3615,-0.041,0.055,-0.0745,0.1985,0.171,-0.1345
-0.7415,-0.3275,0.4135,0.5345,-0.5775,0.043,-0.052,0.091,0.357,-0.042,0.0575,-0.0705,0.2,0.1705,-0.1285
-0.7335,-0.3185,0.415,0.526,-0.574,0.0485,-0.054,0.0875,0.363,-0.0405,0.0585,-0.066,0.2,0.189,-0.1275
-0.741,-0.317,0.424,0.529,-0.5825,0.0535,-0.0415,0.094,0.3585,-0.0365,0.0665,-0.058,0.1975,0.1845,-0.116
-0.7675,-0.3375,0.43,0.5525,-0.599,0.0465,-0.0505,0.0655,0.332,-0.057,0.0495,-0.071,0.1865,0.1945,-0.095
-0.7635,-0.3355,0.428,0.5495,-0.596,0.0465,-0.044,0.0625,0.3295,-0.0605,0.0465,-0.07,0.188,0.186,-0.0835
-0.748,-0.3305,0.4175,0.539,-0.5825,0.0435,-0.0405,0.092,0.342,-0.0585,0.046,-0.074,0.1855,0.1835,-0.078
-0.758,-0.34,0.4185,0.549,-0.588,0.039,-0.0455,0.087,0.342,-0.057,0.047,-0.071,0.1975,0.1925,-0.087
-0.7415,-0.33,0.4115,0.536,-0.5765,0.0405,-0.043,0.065,0.332,-0.058,0.0525,-0.056,0.214,0.185,-0.0865
-0.749,-0.34,0.409,0.5445,-0.579,0.0345,-0.052,0.0465,0.312,-0.075,0.0385,-0.066,0.2065,0.1935,-0.073
-0.75,-0.3455,0.4045,0.5475,-0.577,0.0295,-0.06,0.0535,0.3065,-0.079,0.033,-0.0715,0.2035,0.192,-0.0765
-0.7265,-0.333,0.3935,0.53,-0.56,0.0305,-0.047,0.07,0.3175,-0.069,0.043,-0.064,0.208,0.1735,-0.0845
-0.753,-0.353,0.4,0.553,-0.5765,0.0235,-0.0475,0.055,0.3085,-0.079,0.0355,-0.0685,0.201,0.1615,-0.0775
-0.7785,-0.37,0.4085,0.574,-0.5935,0.019,-0.034,0.057,0.3,-0.088,0.025,-0.078,0.19,0.1785,-0.0725
-0.7675,-0.373,0.395,0.57,-0.5815,0.011,-0.035,0.059,0.2965,-0.0905,0.022,-0.0815,0.1885,0.1715,-0.074
-0.7605,-0.3655,0.3945,0.563,-0.5775,0.0145,-0.048,0.036,0.2845,-0.0955,0.0195,-0.075,0.19,0.157,-0.0755
-0.736,-0.352,0.3835,0.544,-0.5595,0.0155,-0.0455,0.0375,0.281,-0.095,0.025,-0.0645,0.201,0.1675,-0.071
-0.7265,-0.3745,0.352,0.5505,-0.539,-0.0115,-0.063,0.0405,0.2785,-0.102,0.019,-0.07,0.2125,0.1705,-0.064
-0.7295,-0.3875,0.342,0.5585,-0.5355,-0.023,-0.061,0.0165,0.269,-0.105,0.0145,-0.0725,0.2155,0.149,-0.0645
-0.7025,-0.373,0.3295,0.5375,-0.516,-0.022,-0.0615,0.022,0.2665,-0.1055,0.0155,-0.0695,0.2195,0.1385,-0.064
-0.721,-0.3765,0.3445,0.549,-0.5325,-0.016,-0.059,0.0425,0.276,-0.1005,0.0195,-0.0655,0.223,0.1325,-0.063
-0.744,-0.3805,0.3635,0.5625,-0.554,-0.0085,-0.045,0.036,0.274,-0.1035,0.018,-0.065,0.2185,0.122,-0.0565
-0.7285,-0.377,0.351,0.5525,-0.5395,-0.013,-0.0595,0.0305,0.267,-0.1035,0.0195,-0.0625,0.2215,0.127,-0.0545
-0.716,-0.364,0.352,0.54,-0.534,-0.006,-0.063,0.026,0.2615,-0.099,0.025,-0.055,0.2225,0.13,-0.0525
-0.7295,-0.372,0.3575,0.551,-0.5435,-0.0075,-0.043,0.0235,0.2575,-0.106,0.021,-0.057,0.2115,0.1405,-0.062
-0.7475,-0.4045,0.343,0.5755,-0.545,-0.0305,-0.0575,0.0105,0.2535,-0.109,0.019,-0.057,0.212,0.149,-0.0775
-0.7725,-0.4085,0.364,0.59,-0.568,-0.022,-0.0655,0.0195,0.242,-0.114,0.0165,-0.0565,0.204,0.1475,-0.075
-0.7405,-0.3835,0.357,0.562,-0.549,-0.0135,-0.0525,0.016,0.2385,-0.125,0.008,-0.062,0.201,0.137,-0.0685
-0.726,-0.3925,0.333,0.559,-0.5295,-0.0295,-0.0635,-0.0155,0.218,-0.159,-0.0325,-0.1035,0.185,0.1365,-0.049
-0.766,-0.4205,0.3455,0.5935,-0.556,-0.0375,-0.0655,-0.012,0.2055,-0.17,-0.0485,-0.1235,0.1745,0.154,-0.0345
-0.727,-0.395,0.332,0.561,-0.5295,-0.0315,-0.061,-0.002,0.216,-0.1555,-0.0285,-0.0975,0.1945,0.144,-0.035
-0.711,-0.372,0.339,0.5415,-0.525,-0.0165,-0.055,0.001,0.218,-0.153,-0.024,-0.092,0.1885,0.12,-0.0395
-0.7095,-0.379,0.33,0.544,-0.52,-0.0245,-0.0555,0.0045,0.2215,-0.1485,-0.0175,-0.084,0.196,0.124,-0.0425
-0.706,-0.392,0.314,0.549,-0.51,-0.0395,-0.063,-0.0145,0.222,-0.148,-0.018,-0.0815,0.2075,0.113,-0.04
-0.7255,-0.4055,0.32,0.5655,-0.523,-0.043,-0.0645,-0.027,0.2135,-0.1485,-0.0175,-0.081,0.2085,0.112,-0.0385
-0.7245,-0.4035,0.321,0.564,-0.5225,-0.041,-0.0625,-0.01,0.2075,-0.156,-0.0235,-0.083,0.2085,0.1305,-0.031
-0.7355,-0.4125,0.323,0.574,-0.5295,-0.0445,-0.061,-0.0095,0.1995,-0.165,-0.033,-0.0885,0.2045,0.1095,-0.029
-0.7225,-0.4175,0.305,0.57,-0.5135,-0.0565,-0.0775,-0.0065,0.2025,-0.158,-0.024,-0.0795,0.2185,0.104,-0.032
-0.7185,-0.418,0.3005,0.568,-0.5095,-0.0585,-0.067,-0.0065,0.214,-0.153,-0.0245,-0.0845,0.216,0.1165,-0.0265
-0.7285,-0.4185,0.3105,0.5735,-0.5195,-0.054,-0.0555,-0.0225,0.203,-0.162,-0.0325,-0.09,0.205,0.1055,-0.0265
-0.7075,-0.4075,0.3,0.5575,-0.5035,-0.054,-0.07,-0.009,0.1995,-0.1715,-0.0415,-0.094,0.199,0.1055,-0.0275
-0.7095,-0.4045,0.305,0.557,-0.5075,-0.0495,-0.08,-0.003,0.2,-0.1735,-0.044,-0.0965,0.194,0.1115,-0.0295
-0.7195,-0.408,0.3115,0.564,-0.5155,-0.0485,-0.0735,-0.0195,0.1905,-0.179,-0.0465,-0.0935,0.1955,0.111,-0.0255
-0.744,-0.433,0.3105,0.5885,-0.527,-0.0615,-0.0735,-0.028,0.1885,-0.1825,-0.0505,-0.098,0.1895,0.0985,-0.0245
-0.734,-0.4325,0.3015,0.583,-0.518,-0.0655,-0.079,-0.0295,0.183,-0.1805,-0.048,-0.097,0.1835,0.0945,-0.0315
-0.702,-0.4085,0.2935,0.5555,-0.498,-0.0575,-0.07,-0.025,0.186,-0.18,-0.045,-0.0925,0.1845,0.106,-0.0305
-0.706,-0.4085,0.297,0.557,-0.5015,-0.0555,-0.0955,-0.059,0.1775,-0.1795,-0.041,-0.085,0.192,0.1,-0.0265
-0.6995,-0.3935,0.306,0.5465,-0.5025,-0.044,-0.0985,-0.035,0.1885,-0.1645,-0.0255,-0.066,0.2015,0.108,-0.018
-0.7205,-0.388,0.3325,0.5545,-0.5265,-0.028,-0.0735,0.008,0.1985,-0.1565,-0.0165,-0.058,0.2005,0.119,-0.0125
-0.7355,-0.4135,0.3215,0.5745,-0.5285,-0.046,-0.072,-0.0255,0.1795,-0.171,-0.032,-0.0705,0.1935,0.112,-0.0185
-0.7075,-0.4115,0.296,0.5595,-0.5015,-0.058,-0.091,-0.0495,0.167,-0.18,-0.0395,-0.0765,0.1975,0.12,-0.02
-0.704,-0.397,0.3075,0.5505,-0.506,-0.0445,-0.0955,-0.0545,0.166,-0.1775,-0.0305,-0.0655,0.207,0.116,-0.0105
-0.731,-0.417,0.3135,0.574,-0.5225,-0.052,-0.0725,-0.0435,0.1745,-0.1795,-0.039,-0.078,0.194,0.1225,-0.0135
-0.7115,-0.4245,0.2865,0.568,-0.499,-0.069,-0.0815,-0.028,0.1755,-0.1835,-0.0495,-0.0955,0.1875,0.1295,-0.023
-0.707,-0.422,0.285,0.5645,-0.496,-0.0685,-0.077,-0.0245,0.171,-0.188,-0.0495,-0.0915,0.197,0.096,-0.0155
-0.727,-0.422,0.3045,0.5745,-0.516,-0.0585,-0.0775,-0.0275,0.175,-0.178,-0.041,-0.087,0.202,0.1025,-0.014
-0.707,-0.403,0.304,0.555,-0.5055,-0.0495,-0.0825,-0.0265,0.186,-0.1675,-0.034,-0.083,0.205,0.107,-0.02
-0.7105,-0.407,0.3035,0.5585,-0.507,-0.052,-0.0745,-0.039,0.1715,-0.1795,-0.0445,-0.0895,0.1965,0.1015,-0.011
-0.724,-0.4165,0.308,0.57,-0.516,-0.054,-0.081,-0.0215,0.1825,-0.1645,-0.0285,-0.0765,0.2055,0.1015,-0.013
-0.713,-0.4175,0.2955,0.565,-0.5045,-0.061,-0.0725,-0.012,0.188,-0.1665,-0.032,-0.082,0.202,0.08,-0.0175
-0.692,-0.4145,0.2775,0.553,-0.4845,-0.0685,-0.0695,-0.0225,0.174,-0.18,-0.0465,-0.098,0.187,0.088,-0.014
-0.6905,-0.41,0.2805,0.5505,-0.4855,-0.0645,-0.0605,-0.0205,0.1845,-0.173,-0.038,-0.0895,0.1925,0.0875,-0.0165
-0.697,-0.4145,0.282,0.5555,-0.4895,-0.066,-0.0635,-0.024,0.1825,-0.175,-0.0395,-0.091,0.1915,0.09,-0.019
-0.681,-0.408,0.2735,0.5445,-0.477,-0.067,-0.0755,-0.0285,0.1805,-0.174,-0.0365,-0.087,0.193,0.097,-0.0205
-0.6755,-0.41,0.2655,0.5425,-0.4705,-0.072,-0.0775,-0.049,0.1645,-0.186,-0.046,-0.091,0.184,0.0985,-0.018
-0.6825,-0.4205,0.262,0.5515,-0.4725,-0.079,-0.0795,-0.055,0.1605,-0.1935,-0.0555,-0.102,0.176,0.0975,-0.0125
-0.709,-0.4295,0.2795,0.5695,-0.494,-0.0755,-0.0655,-0.026,0.176,-0.187,-0.052,-0.1015,0.178,0.0785,-0.012
-0.7165,-0.428,0.2885,0.572,-0.502,-0.07,-0.057,-0.016,0.1735,-0.1865,-0.0475,-0.0945,0.1845,0.098,-0.019
-0.6885,-0.413,0.2755,0.551,-0.482,-0.069,-0.07,-0.0285,0.171,-0.1925,-0.0515,-0.101,0.1895,0.097,-0.021
-0.6925,-0.4115,0.281,0.552,-0.4865,-0.0655,-0.071,-0.0335,0.169,-0.1955,-0.055,-0.1055,0.188,0.0835,-0.0185
-0.7055,-0.421,0.284,0.5635,-0.4945,-0.0685,-0.069,-0.036,0.163,-0.2,-0.06,-0.107,0.1895,0.087,-0.017
-0.6935,-0.417,0.2765,0.555,-0.485,-0.07,-0.069,-0.0145,0.178,-0.189,-0.052,-0.1005,0.197,0.071,-0.0175
-0.6935,-0.414,0.28,0.5535,-0.487,-0.067,-0.0615,-0.029,0.182,-0.177,-0.039,-0.0825,0.2075,0.0895,-0.0215
-0.7085,-0.423,0.285,0.566,-0.4965,-0.069,-0.0565,-0.02,0.1775,-0.184,-0.043,-0.084,0.1985,0.093,-0.0205
-0.7005,-0.4245,0.276,0.563,-0.4885,-0.0745,-0.058,-0.0085,0.1835,-0.1845,-0.0415,-0.0835,0.1975,0.094,-0.0305
-0.6845,-0.4155,0.269,0.55,-0.4765,-0.0735,-0.0715,-0.0435,0.1765,-0.1785,-0.0335,-0.073,0.2085,0.078,-0.039
-0.6585,-0.4115,0.247,0.535,-0.4525,-0.082,-0.0835,-0.0395,0.178,-0.167,-0.021,-0.063,0.2235,0.088,-0.037
-0.637,-0.413,0.224,0.525,-0.4305,-0.0945,-0.077,-0.0085,0.183,-0.1595,-0.012,-0.0535,0.235,0.0915,-0.037
-0.6555,-0.4155,0.2405,0.5355,-0.448,-0.0875,-0.069,-0.0025,0.1875,-0.1645,-0.015,-0.0555,0.2225,0.05,-0.03
-0.6645,-0.414,0.2505,0.539,-0.4575,-0.0815,-0.0625,-0.034,0.181,-0.173,-0.0265,-0.0685,0.2085,0.0715,-0.037
-0.685,-0.4185,0.266,0.552,-0.4755,-0.076,-0.0535,-0.028,0.1785,-0.1725,-0.0315,-0.0755,0.1995,0.084,-0.0415
-0.6995,-0.418,0.2815,0.5585,-0.4905,-0.068,-0.06,-0.0205,0.1765,-0.179,-0.035,-0.0755,0.197,0.0905,-0.0285
-0.6775,-0.3975,0.28,0.5375,-0.479,-0.0585,-0.0725,-0.022,0.176,-0.182,-0.0385,-0.0775,0.197,0.0815,-0.0255
-0.6885,-0.3985,0.29,0.5435,-0.4895,-0.054,-0.0575,-0.023,0.179,-0.187,-0.048,-0.0885,0.186,0.104,-0.034
-0.68,-0.395,0.2855,0.5375,-0.483,-0.055,-0.0545,-0.0275,0.175,-0.1945,-0.0535,-0.093,0.183,0.1125,-0.0355
-0.673,-0.3945,0.2785,0.534,-0.476,-0.058,-0.071,-0.0345,0.176,-0.192,-0.0505,-0.093,0.1855,0.0985,-0.0345
-0.689,-0.406,0.283,0.5475,-0.486,-0.0615,-0.062,-0.0205,0.174,-0.1935,-0.0535,-0.0965,0.1825,0.1015,-0.04
-0.6915,-0.4005,0.291,0.546,-0.4915,-0.0545,-0.066,0.0,0.188,-0.1805,-0.0415,-0.085,0.1945,0.083,-0.042
-0.7085,-0.4055,0.303,0.557,-0.506,-0.0515,-0.052,-0.012,0.189,-0.1845,-0.0445,-0.0895,0.193,0.1015,-0.047
-0.6935,-0.4115,0.282,0.5525,-0.488,-0.0645,-0.0445,-0.014,0.179,-0.1975,-0.0565,-0.1005,0.1935,0.087,-0.041
-0.6835,-0.4235,0.26,0.5535,-0.4715,-0.082,-0.0615,-0.0165,0.1825,-0.19,-0.046,-0.0895,0.218,0.0805,-0.0365
-0.7075,-0.44,0.268,0.5735,-0.4875,-0.086,-0.065,-0.0215,0.1805,-0.1875,-0.0395,-0.083,0.223,0.066,-0.0335
-0.695,-0.432,0.263,0.5635,-0.479,-0.0845,-0.0625,-0.0185,0.1855,-0.176,-0.0275,-0.0725,0.2295,0.061,-0.035
-0.666,-0.422,0.244,0.544,-0.455,-0.0895,-0.0605,-0.018,0.1925,-0.157,-0.0055,-0.0485,0.247,0.0875,-0.0455
-0.6855,-0.4355,0.25,0.5605,-0.468,-0.093,-0.065,-0.027,0.192,-0.157,-0.006,-0.052,0.2415,0.0745,-0.036
-0.6925,-0.442,0.2505,0.5675,-0.4715,-0.0955,-0.064,-0.0265,0.185,-0.17,-0.0225,-0.0695,0.226,0.076,-0.032
-0.6885,-0.4365,0.2525,0.5625,-0.4705,-0.092,-0.062,-0.0205,0.1775,-0.1745,-0.0255,-0.069,0.2175,0.0825,-0.0375
-0.703,-0.4445,0.2585,0.574,-0.481,-0.093,-0.0545,-0.013,0.1805,-0.1835,-0.0395,-0.082,0.2075,0.073,-0.0395
-0.7,-0.448,0.252,0.574,-0.476,-0.098,-0.0375,-0.0215,0.179,-0.1925,-0.052,-0.099,0.1915,0.048,-0.046
-0.722,-0.448,0.274,0.585,-0.498,-0.087,-0.039,-0.032,0.168,-0.201,-0.0625,-0.1135,0.167,0.047,-0.049
-0.72,-0.4405,0.2795,0.5805,-0.5,-0.0805,-0.045,-0.0135,0.1725,-0.198,-0.0595,-0.1095,0.1715,0.0515,-0.0405
-0.7015,-0.421,0.2805,0.5615,-0.491,-0.07,-0.0405,-0.025,0.1835,-0.1785,-0.0355,-0.0845,0.19,0.0625,-0.037
-0.707,-0.419,0.288,0.563,-0.4975,-0.0655,-0.0475,-0.018,0.1865,-0.1795,-0.04,-0.0875,0.1895,0.084,-0.032
-0.716,-0.4245,0.2915,0.57,-0.5035,-0.0665,-0.045,-0.0165,0.182,-0.1825,-0.0415,-0.0855,0.195,0.0775,-0.028
-0.707,-0.421,0.2865,0.564,-0.4965,-0.067,-0.0555,-0.027,0.1825,-0.1785,-0.035,-0.0755,0.205,0.077,-0.032
-0.688,-0.424,0.264,0.556,-0.476,-0.08,-0.0545,-0.039,0.1735,-0.1865,-0.0415,-0.083,0.2095,0.0695,-0.0235
-0.695,-0.434,0.261,0.5645,-0.478,-0.0865,-0.0545,-0.0675,0.1585,-0.194,-0.046,-0.0865,0.219,0.0595,-0.02
-0.7,-0.431,0.269,0.5655,-0.4845,-0.081,-0.0505,-0.0125,0.18,-0.1885,-0.0455,-0.0885,0.2185,0.0785,-0.028
-0.7165,-0.4255,0.2905,0.571,-0.5035,-0.0675,-0.0365,-0.0195,0.172,-0.1885,-0.044,-0.09,0.2045,0.0845,-0.026
-0.707,-0.414,0.293,0.5605,-0.5,-0.0605,-0.049,-0.053,0.178,-0.169,-0.0225,-0.065,0.215,0.094,-0.0325
-0.68,-0.397,0.283,0.5385,-0.4815,-0.057,-0.055,-0.016,0.19,-0.1625,-0.0145,-0.057,0.215,0.096,-0.0385
-0.694,-0.419,0.275,0.5565,-0.4845,-0.072,-0.0675,-0.043,0.169,-0.182,-0.0325,-0.074,0.205,0.0705,-0.0335
-0.714,-0.449,0.265,0.5815,-0.4895,-0.092,-0.064,-0.051,0.165,-0.192,-0.048,-0.0895,0.1975,0.0735,-0.031
-0.7185,-0.4455,0.273,0.582,-0.4955,-0.0865,-0.047,-0.023,0.1655,-0.1985,-0.054,-0.097,0.186,0.0765,-0.024
-0.719,-0.446,0.273,0.5825,-0.496,-0.0865,-0.0415,-0.0285,0.1775,-0.1885,-0.046,-0.0895,0.1935,0.0565,-0.0245
-0.6965,-0.433,0.2635,0.5645,-0.48,-0.0845,-0.0375,-0.034,0.1795,-0.1845,-0.0435,-0.0855,0.202,0.047,-0.0325
-0.653,-0.4095,0.2435,0.5315,-0.4485,-0.083,-0.0495,-0.0325,0.175,-0.179,-0.0355,-0.0735,0.2205,0.067,-0.0355
-0.6795,-0.4255,0.254,0.5525,-0.467,-0.0855,-0.05,-0.0335,0.173,-0.185,-0.042,-0.0795,0.219,0.0895,-0.0315
-0.7065,-0.442,0.2645,0.5745,-0.4855,-0.089,-0.0405,-0.033,0.17,-0.187,-0.0465,-0.087,0.208,0.0805,-0.022
-0.6795,-0.4445,0.235,0.562,-0.4575,-0.1045,-0.0575,-0.0335,0.17,-0.182,-0.0395,-0.081,0.216,0.07,-0.012
-0.6905,-0.4525,0.238,0.5715,-0.464,-0.1075,-0.0585,-0.042,0.165,-0.1895,-0.0475,-0.084,0.208,0.062,-0.0145
-0.6995,-0.4525,0.247,0.576,-0.4735,-0.1025,-0.0495,-0.058,0.1575,-0.1945,-0.0525,-0.086,0.2045,0.066,-0.018
-0.688,-0.4385,0.2495,0.563,-0.469,-0.0945,-0.049,-0.038,0.1665,-0.19,-0.0465,-0.083,0.204,0.0935,-0.0205
-0.685,-0.433,0.252,0.559,-0.4685,-0.0905,-0.0495,-0.026,0.1725,-0.185,-0.0415,-0.0745,0.2075,0.068,-0.0225
-0.6945,-0.443,0.2515,0.5685,-0.473,-0.0955,-0.048,-0.0445,0.1555,-0.2,-0.0515,-0.0825,0.205,0.049,-0.019
-0.7035,-0.4435,0.26,0.573,-0.4815,-0.0915,-0.0405,-0.038,0.1555,-0.198,-0.0485,-0.0825,0.2005,0.0515,-0.021
-0.689,-0.434,0.255,0.5615,-0.472,-0.0895,-0.05,-0.047,0.164,-0.186,-0.035,-0.0665,0.2195,0.068,-0.0265
-0.703,-0.4365,0.2665,0.57,-0.4845,-0.085,-0.056,-0.0545,0.155,-0.1935,-0.042,-0.0765,0.2185,0.0865,-0.0305
-0.718,-0.435,0.283,0.5765,-0.5005,-0.076,-0.051,-0.0475,0.153,-0.1965,-0.0455,-0.082,0.2105,0.052,-0.025
-0.7235,-0.44,0.284,0.582,-0.504,-0.078,-0.048,-0.0445,0.1475,-0.2025,-0.049,-0.086,0.206,0.0715,-0.0025
-0.7325,-0.449,0.284,0.5905,-0.508,-0.0825,-0.05,-0.0505,0.146,-0.206,-0.058,-0.098,0.1975,0.09,0.01
-0.714,-0.44,0.2735,0.577,-0.494,-0.083,-0.041,-0.056,0.152,-0.205,-0.059,-0.0985,0.1945,0.087,-0.011
-0.726,-0.449,0.2765,0.5875,-0.5015,-0.0865,-0.03,-0.045,0.1515,-0.211,-0.067,-0.108,0.1795,0.0815,-0.023
-0.7325,-0.459,0.2735,0.5955,-0.503,-0.093,-0.04,-0.0435,0.153,-0.203,-0.0625,-0.103,0.1835,0.0555,-0.027
-0.7205,-0.4525,0.2675,0.5865,-0.494,-0.0925,-0.0385,-0.0405,0.1555,-0.1965,-0.0505,-0.088,0.1975,0.0555,-0.03
-0.7175,-0.4465,0.271,0.582,-0.4945,-0.088,-0.042,-0.042,0.1595,-0.1955,-0.05,-0.0885,0.2005,0.0495,-0.0275
-0.7165,-0.445,0.2715,0.5805,-0.494,-0.087,-0.053,-0.055,0.1515,-0.202,-0.06,-0.098,0.1965,0.073,-0.023
-0.7455,-0.456,0.2895,0.6005,-0.5175,-0.083,-0.043,-0.051,0.1515,-0.206,-0.066,-0.1045,0.183,0.09,-0.0165
-0.7355,-0.455,0.281,0.595,-0.5085,-0.087,-0.048,-0.054,0.153,-0.1995,-0.056,-0.091,0.191,0.06,-0.016
-0.7145,-0.4575,0.257,0.586,-0.486,-0.1005,-0.058,-0.061,0.1475,-0.199,-0.0525,-0.084,0.2015,0.057,-0.0205
-0.728,-0.4695,0.258,0.599,-0.493,-0.106,-0.055,-0.0525,0.1505,-0.2005,-0.057,-0.0915,0.198,0.0755,-0.025
-0.728,-0.463,0.2645,0.5955,-0.4965,-0.0995,-0.0565,-0.069,0.146,-0.2025,-0.058,-0.093,0.1965,0.0635,-0.0125
-0.739,-0.4655,0.2735,0.602,-0.506,-0.096,-0.061,-0.065,0.146,-0.198,-0.0495,-0.086,0.202,0.032,-0.005
-0.7385,-0.4675,0.271,0.603,-0.5045,-0.0985,-0.062,-0.062,0.1425,-0.2015,-0.0515,-0.0865,0.2025,0.03,-0.0055
-0.7275,-0.4575,0.2695,0.5925,-0.4985,-0.094,-0.0625,-0.0865,0.1405,-0.1995,-0.0485,-0.08,0.2055,0.0505,-0.0035
-0.719,-0.4515,0.2675,0.585,-0.493,-0.092,-0.066,-0.0555,0.1565,-0.1865,-0.0335,-0.0675,0.214,0.0615,-0.0075
-0.718,-0.4605,0.2575,0.5895,-0.4875,-0.1015,-0.073,-0.0595,0.1495,-0.195,-0.0415,-0.0755,0.214,0.068,-0.0035
-0.72,-0.4575,0.2625,0.5885,-0.491,-0.0975,-0.083,-0.084,0.1315,-0.2075,-0.053,-0.0825,0.207,0.0655,0.004
-0.7035,-0.435,0.268,0.5695,-0.486,-0.0835,-0.078,-0.0795,0.135,-0.2125,-0.0605,-0.0905,0.192,0.074,0.0035
-0.711,-0.432,0.279,0.5715,-0.495,-0.0765,-0.0735,-0.077,0.1345,-0.2195,-0.0735,-0.1085,0.1755,0.105,-0.0025
-0.746,-0.4495,0.2965,0.598,-0.5215,-0.0765,-0.073,-0.052,0.141,-0.2175,-0.074,-0.1105,0.182,0.1005,0.001
-0.7565,-0.46,0.2965,0.608,-0.5265,-0.082,-0.0755,-0.052,0.146,-0.21,-0.063,-0.099,0.2,0.077,0.004
-0.7415,-0.462,0.279,0.602,-0.5105,-0.0915,-0.0885,-0.068,0.1345,-0.216,-0.0675,-0.103,0.2005,0.0665,0.0
-0.7365,-0.461,0.276,0.599,-0.5065,-0.0925,-0.084,-0.0665,0.1445,-0.2065,-0.057,-0.095,0.2005,0.078,-0.005
-0.736,-0.4525,0.2835,0.5945,-0.5095,-0.0845,-0.081,-0.0585,0.153,-0.195,-0.0435,-0.084,0.204,0.0765,-0.007
-0.7275,-0.447,0.2805,0.587,-0.504,-0.0835,-0.0875,-0.0635,0.141,-0.2025,-0.052,-0.089,0.202,0.068,-0.007
-0.7295,-0.444,0.2855,0.5865,-0.5075,-0.079,-0.091,-0.0795,0.133,-0.212,-0.0605,-0.096,0.196,0.0755,-0.007
-0.7365,-0.4585,0.278,0.5975,-0.507,-0.09,-0.091,-0.0825,0.125,-0.22,-0.069,-0.1055,0.1895,0.065,0.003
-0.723,-0.465,0.258,0.594,-0.4905,-0.104,-0.0915,-0.081,0.1245,-0.2165,-0.064,-0.1015,0.191,0.0645,0.01
-0.7105,-0.4655,0.245,0.588,-0.4775,-0.1105,-0.096,-0.0705,0.132,-0.211,-0.056,-0.091,0.197,0.067,0.015
-0.721,-0.474,0.2465,0.5975,-0.4835,-0.114,-0.0945,-0.073,0.13,-0.212,-0.0585,-0.0895,0.199,0.063,0.0195
-0.752,-0.4785,0.2735,0.615,-0.5125,-0.1025,-0.0895,-0.0665,0.1315,-0.214,-0.0605,-0.092,0.1955,0.0715,0.0235
-0.7515,-0.4745,0.277,0.613,-0.5145,-0.0985,-0.087,-0.0655,0.1365,-0.2085,-0.0555,-0.0875,0.2035,0.0705,0.0195
-0.7265,-0.4675,0.259,0.597,-0.493,-0.104,-0.096,-0.0905,0.1255,-0.2105,-0.0545,-0.085,0.2105,0.068,0.0205
-0.734,-0.4685,0.2655,0.601,-0.5,-0.1015,-0.1055,-0.087,0.1225,-0.2125,-0.0545,-0.085,0.21,0.078,0.0255
-0.7365,-0.4625,0.274,0.5995,-0.505,-0.0945,-0.1005,-0.088,0.125,-0.208,-0.0475,-0.077,0.216,0.076,0.0225
-0.722,-0.448,0.2735,0.585,-0.498,-0.087,-0.1025,-0.09,0.126,-0.203,-0.038,-0.0655,0.2215,0.092,0.0295
-0.721,-0.4445,0.276,0.5825,-0.4985,-0.0845,-0.1005,-0.1015,0.1165,-0.213,-0.0475,-0.075,0.215,0.107,0.0275
-0.7275,-0.4455,0.282,0.5865,-0.5045,-0.082,-0.0935,-0.107,0.1075,-0.2285,-0.0675,-0.094,0.1975,0.0995,0.032
-0.7415,-0.444,0.2975,0.5925,-0.5195,-0.073,-0.0915,-0.0935,0.1115,-0.234,-0.075,-0.1015,0.1825,0.096,0.0345
-0.751,-0.4475,0.303,0.5995,-0.527,-0.072,-0.0875,-0.092,0.108,-0.239,-0.0795,-0.107,0.178,0.1,0.0225
-0.74,-0.45,0.29,0.595,-0.515,-0.08,-0.095,-0.0825,0.116,-0.2305,-0.069,-0.0985,0.193,0.097,0.029
-0.7365,-0.457,0.2795,0.597,-0.508,-0.0885,-0.1,-0.0915,0.1135,-0.2275,-0.064,-0.092,0.2015,0.0875,0.0335
-0.7515,-0.47,0.281,0.611,-0.5165,-0.0945,-0.097,-0.1015,0.109,-0.2285,-0.063,-0.093,0.1995,0.0795,0.031
-0.7575,-0.4755,0.282,0.6165,-0.52,-0.0965,-0.096,-0.092,0.1175,-0.2225,-0.0585,-0.091,0.202,0.0635,0.021
-0.744,-0.4705,0.2735,0.607,-0.5085,-0.0985,-0.0935,-0.094,0.1105,-0.2265,-0.062,-0.0935,0.1965,0.064,0.0185
-0.7445,-0.472,0.2725,0.6085,-0.5085,-0.1,-0.0945,-0.1,0.111,-0.226,-0.064,-0.0975,0.1895,0.08,0.024
-0.755,-0.481,0.274,0.618,-0.5145,-0.1035,-0.0945,-0.0895,0.109,-0.235,-0.075,-0.108,0.1835,0.075,0.0255
-0.734,-0.462,0.272,0.598,-0.503,-0.095,-0.082,-0.078,0.117,-0.231,-0.0705,-0.104,0.189,0.061,0.026
-0.717,-0.448,0.2685,0.5825,-0.4925,-0.09,-0.0845,-0.087,0.131,-0.205,-0.0445,-0.082,0.2085,0.065,0.0135
-0.715,-0.4525,0.2625,0.584,-0.489,-0.095,-0.087,-0.0815,0.1295,-0.208,-0.0465,-0.0815,0.2115,0.059,0.0175
-0.714,-0.4525,0.2615,0.583,-0.4875,-0.0955,-0.083,-0.0715,0.1305,-0.2185,-0.059,-0.092,0.202,0.062,0.025
-0.711,-0.4605,0.2505,0.5855,-0.4805,-0.105,-0.0905,-0.0845,0.123,-0.2235,-0.0625,-0.0935,0.2015,0.0765,0.0155
-0.715,-0.457,0.2585,0.586,-0.4865,-0.099,-0.0905,-0.0885,0.1175,-0.223,-0.0595,-0.0915,0.2045,0.0745,0.0165
-0.729,-0.4515,0.2775,0.59,-0.503,-0.087,-0.0845,-0.0845,0.12,-0.217,-0.0535,-0.086,0.2035,0.0775,0.0175
-0.713,-0.4565,0.2565,0.5845,-0.485,-0.1,-0.083,-0.085,0.1215,-0.2175,-0.052,-0.082,0.2045,0.0495,0.015
-0.703,-0.452,0.251,0.5775,-0.477,-0.1005,-0.0845,-0.0835,0.133,-0.2075,-0.04,-0.0725,0.2105,0.0505,0.017
-0.721,-0.4495,0.2715,0.585,-0.4965,-0.089,-0.0865,-0.0855,0.1265,-0.2085,-0.0405,-0.0725,0.207,0.071,0.0135
-0.74,-0.4555,0.2845,0.5975,-0.5125,-0.0855,-0.0845,-0.077,0.115,-0.2205,-0.051,-0.0825,0.202,0.0605,0.011
-0.745,-0.447,0.298,0.596,-0.5215,-0.0745,-0.0805,-0.0765,0.1285,-0.214,-0.045,-0.0795,0.207,0.0845,0.019
-0.735,-0.4425,0.2925,0.5885,-0.514,-0.0745,-0.087,-0.0935,0.1255,-0.217,-0.052,-0.087,0.2065,0.0885,0.018
-0.725,-0.448,0.277,0.5865,-0.501,-0.0855,-0.083,-0.08,0.1235,-0.22,-0.0565,-0.09,0.2065,0.069,0.0145
-0.7225,-0.4455,0.277,0.584,-0.5,-0.084,-0.065,-0.069,0.1275,-0.217,-0.052,-0.0835,0.207,0.057,0.0165
-0.716,-0.4495,0.2665,0.5825,-0.491,-0.0915,-0.077,-0.084,0.123,-0.2185,-0.0515,-0.083,0.2135,0.07,0.014
-0.716,-0.454,0.2625,0.585,-0.4895,-0.0955,-0.0895,-0.0865,0.1225,-0.2165,-0.05,-0.083,0.219,0.079,0.0115
-0.7485,-0.4515,0.297,0.6,-0.5225,-0.0775,-0.074,-0.0765,0.126,-0.214,-0.051,-0.0855,0.209,0.069,0.017
-0.748,-0.4525,0.2955,0.6005,-0.5215,-0.0785,-0.07,-0.0785,0.1275,-0.2125,-0.048,-0.086,0.208,0.0685,0.024
-0.732,-0.457,0.2755,0.5945,-0.5035,-0.091,-0.068,-0.0795,0.125,-0.214,-0.05,-0.09,0.2065,0.062,0.02
-0.736,-0.4665,0.2695,0.6015,-0.503,-0.0985,-0.069,-0.079,0.1245,-0.2175,-0.055,-0.097,0.201,0.059,0.0155
-0.738,-0.471,0.267,0.6045,-0.5025,-0.102,-0.0645,-0.0765,0.1235,-0.2255,-0.064,-0.1045,0.1925,0.0485,0.0145
-0.7285,-0.4685,0.26,0.5985,-0.494,-0.1045,-0.0655,-0.0765,0.1185,-0.232,-0.0725,-0.107,0.1885,0.047,0.024
-0.7155,-0.4615,0.2535,0.5885,-0.4845,-0.104,-0.07,-0.074,0.1265,-0.2215,-0.062,-0.099,0.1995,0.068,0.021
-0.7125,-0.4455,0.267,0.579,-0.49,-0.089,-0.0605,-0.056,0.1405,-0.211,-0.0565,-0.1015,0.199,0.0785,0.0145
-0.727,-0.4595,0.2675,0.593,-0.497,-0.096,-0.066,-0.0715,0.1255,-0.224,-0.066,-0.111,0.194,0.071,0.015
-0.7355,-0.466,0.269,0.6005,-0.502,-0.0985,-0.0585,-0.0755,0.1245,-0.2215,-0.061,-0.102,0.1975,0.0605,0.006
-0.718,-0.4535,0.2645,0.586,-0.491,-0.0945,-0.0495,-0.0605,0.137,-0.212,-0.052,-0.0945,0.2015,0.0375,0.004
-0.7225,-0.465,0.2575,0.5935,-0.49,-0.104,-0.055,-0.0705,0.1345,-0.214,-0.055,-0.0975,0.203,0.05,0.003
-0.7155,-0.4645,0.251,0.59,-0.483,-0.107,-0.067,-0.081,0.125,-0.2245,-0.0645,-0.1055,0.1985,0.072,0.011
-0.713,-0.4565,0.2565,0.5845,-0.4845,-0.1,-0.0615,-0.0875,0.1205,-0.225,-0.0625,-0.102,0.197,0.073,0.011
-0.7245,-0.457,0.2675,0.5905,-0.496,-0.0945,-0.051,-0.077,0.1225,-0.221,-0.0595,-0.098,0.1915,0.0825,0.0075
-0.725,-0.4585,0.266,0.592,-0.4955,-0.0965,-0.0615,-0.0745,0.1205,-0.228,-0.069,-0.1075,0.1895,0.0685,0.0125
-0.726,-0.4545,0.2715,0.59,-0.4985,-0.0915,-0.063,-0.0885,0.1195,-0.224,-0.0655,-0.1045,0.1945,0.0705,0.01
-0.712,-0.444,0.268,0.578,-0.49,-0.088,-0.0625,-0.09,0.1225,-0.2165,-0.055,-0.0935,0.195,0.0855,0.0085
-0.728,-0.452,0.276,0.59,-0.502,-0.088,-0.058,-0.0825,0.121,-0.217,-0.054,-0.091,0.192,0.081,0.0055
-0.7525,-0.4635,0.2885,0.608,-0.5205,-0.0875,-0.0515,-0.082,0.124,-0.213,-0.0465,-0.0835,0.2,0.0855,0.0115
-0.731,-0.4455,0.286,0.5885,-0.5085,-0.0795,-0.054,-0.0795,0.1315,-0.207,-0.0395,-0.0745,0.211,0.0875,0.0065
-0.705,-0.4285,0.2765,0.567,-0.4905,-0.076,-0.0545,-0.081,0.1205,-0.2175,-0.0515,-0.0855,0.2045,0.08,0.006
-0.707,-0.43,0.277,0.5685,-0.492,-0.0765,-0.045,-0.0765,0.1295,-0.212,-0.0495,-0.0865,0.203,0.093,0.016
-0.7225,-0.441,0.2815,0.5815,-0.502,-0.0795,-0.0445,-0.0735,0.128,-0.2135,-0.052,-0.0885,0.2025,0.0895,0.019
-0.718,-0.4475,0.2705,0.5825,-0.494,-0.0885,-0.0485,-0.0795,0.123,-0.2155,-0.0545,-0.09,0.2085,0.084,0.014
-0.714,-0.445,0.269,0.5795,-0.4915,-0.088,-0.041,-0.08,0.131,-0.2075,-0.0485,-0.0885,0.2115,0.073,0.009
-0.72,-0.444,0.276,0.5815,-0.498,-0.084,-0.04,-0.08,0.125,-0.2085,-0.0475,-0.0885,0.212,0.059,0.0105
-0.722,-0.44,0.282,0.581,-0.502,-0.079,-0.036,-0.0715,0.133,-0.2035,-0.042,-0.081,0.212,0.091,0.0065
-0.7355,-0.4505,0.285,0.593,-0.51,-0.0825,-0.0395,-0.082,0.123,-0.2155,-0.05,-0.087,0.201,0.083,0.006
-0.741,-0.454,0.2865,0.5975,-0.5135,-0.0835,-0.042,-0.079,0.118,-0.2215,-0.057,-0.0935,0.192,0.071,0.0085
-0.744,-0.4515,0.2925,0.5975,-0.518,-0.0795,-0.0345,-0.073,0.1285,-0.2185,-0.058,-0.095,0.184,0.0845,0.011
-0.7405,-0.451,0.289,0.5955,-0.5145,-0.081,-0.04,-0.089,0.1165,-0.225,-0.062,-0.0995,0.1815,0.0835,0.0085
-0.751,-0.4525,0.298,0.602,-0.5245,-0.077,-0.039,-0.0865,0.109,-0.236,-0.0725,-0.1115,0.1715,0.094,0.001
-0.75,-0.448,0.3025,0.599,-0.5265,-0.073,-0.0355,-0.0855,0.1145,-0.235,-0.0745,-0.1135,0.166,0.091,0.0
-0.741,-0.4485,0.2925,0.5945,-0.517,-0.078,-0.03,-0.089,0.1105,-0.238,-0.0785,-0.117,0.1625,0.075,0.0025
-0.7355,-0.4525,0.283,0.594,-0.5095,-0.085,-0.032,-0.0865,0.112,-0.238,-0.075,-0.1145,0.1685,0.0775,0.002
-0.7035,-0.4415,0.262,0.5725,-0.4825,-0.0895,-0.039,-0.0775,0.1275,-0.2205,-0.054,-0.0955,0.1915,0.0705,-0.001
-0.712,-0.455,0.2575,0.5835,-0.4845,-0.099,-0.0315,-0.0765,0.1285,-0.215,-0.049,-0.088,0.203,0.064,0.008
-0.713,-0.4535,0.2595,0.583,-0.486,-0.097,-0.028,-0.073,0.135,-0.205,-0.036,-0.076,0.2155,0.0645,0.0105
-0.695,-0.4385,0.2565,0.5665,-0.476,-0.091,-0.031,-0.064,0.145,-0.1925,-0.023,-0.0645,0.2265,0.0675,0.0065
-0.7105,-0.45,0.2605,0.5805,-0.4855,-0.095,-0.0305,-0.0685,0.138,-0.198,-0.03,-0.069,0.224,0.0845,0.006
-0.7235,-0.462,0.2615,0.593,-0.4925,-0.1005,-0.026,-0.0695,0.135,-0.205,-0.036,-0.077,0.215,0.071,0.003
-0.7295,-0.473,0.2565,0.601,-0.493,-0.108,-0.031,-0.0745,0.127,-0.215,-0.048,-0.0875,0.201,0.054,0.009
-0.732,-0.472,0.2605,0.602,-0.4965,-0.1055,-0.0235,-0.0725,0.126,-0.2185,-0.0515,-0.0935,0.189,0.049,0.005
-0.728,-0.467,0.261,0.5975,-0.4945,-0.103,-0.0145,-0.0665,0.1305,-0.2155,-0.05,-0.091,0.19,0.058,-0.006
-0.7235,-0.468,0.255,0.5955,-0.4895,-0.1065,-0.0275,-0.0835,0.1205,-0.2225,-0.057,-0.092,0.1935,0.057,-0.0045
-0.723,-0.466,0.2565,0.5945,-0.49,-0.105,-0.026,-0.08,0.1175,-0.227,-0.0585,-0.0955,0.19,0.061,0.0025
-0.7225,-0.4645,0.2575,0.5935,-0.49,-0.1035,-0.023,-0.071,0.123,-0.2235,-0.059,-0.1015,0.1875,0.084,0.006
-0.7295,-0.46,0.269,0.595,-0.4995,-0.0955,-0.026,-0.079,0.1225,-0.225,-0.0625,-0.1045,0.1855,0.071,0.0095
-0.744,-0.472,0.2715,0.608,-0.508,-0.1,-0.0275,-0.08,0.1195,-0.2255,-0.061,-0.102,0.1895,0.0605,0.005
-0.737,-0.4825,0.255,0.6095,-0.496,-0.1135,-0.025,-0.0805,0.121,-0.2195,-0.054,-0.093,0.2015,0.0565,-0.0005
-0.727,-0.4785,0.249,0.6025,-0.488,-0.115,-0.017,-0.0695,0.1265,-0.215,-0.049,-0.087,0.2065,0.0475,0.003
-0.7435,-0.4945,0.249,0.619,-0.496,-0.1225,-0.0265,-0.0745,0.1175,-0.226,-0.059,-0.0965,0.205,0.0395,0.01
-0.7535,-0.4905,0.263,0.622,-0.5085,-0.1135,-0.0285,-0.088,0.113,-0.2285,-0.064,-0.0995,0.202,0.054,0.015
-0.7445,-0.47,0.2745,0.607,-0.509,-0.0975,-0.022,-0.0875,0.1205,-0.2215,-0.059,-0.096,0.1985,0.084,0.007
-0.747,-0.473,0.2735,0.61,-0.5105,-0.0995,-0.0315,-0.0935,0.113,-0.228,-0.062,-0.0995,0.198,0.0725,0.005
-0.755,-0.477,0.2785,0.6165,-0.517,-0.099,-0.0215,-0.0925,0.112,-0.227,-0.062,-0.098,0.1935,0.057,0.006
-0.749,-0.471,0.278,0.61,-0.5135,-0.0965,-0.0155,-0.081,0.119,-0.22,-0.0555,-0.0935,0.192,0.067,-0.004
-0.742,-0.4685,0.2735,0.605,-0.508,-0.0975,-0.032,-0.0835,0.116,-0.223,-0.0555,-0.0935,0.198,0.0815,0.0095
-0.75,-0.482,0.268,0.616,-0.509,-0.107,-0.0315,-0.0985,0.1045,-0.235,-0.066,-0.1035,0.193,0.0835,0.0145
-0.7445,-0.477,0.2675,0.611,-0.506,-0.105,-0.021,-0.0865,0.11,-0.2315,-0.0625,-0.1,0.195,0.0685,0.006
-0.7455,-0.4795,0.266,0.6125,-0.506,-0.1065,-0.025,-0.089,0.113,-0.23,-0.0595,-0.0935,0.2015,0.0605,0.012
-0.781,-0.5085,0.273,0.6445,-0.527,-0.1175,-0.031,-0.095,0.1045,-0.2395,-0.0715,-0.1055,0.1885,0.0545,0.0125
-0.774,-0.5005,0.2735,0.6375,-0.524,-0.1135,-0.025,-0.088,0.1075,-0.238,-0.072,-0.1075,0.1795,0.0635,0.0065
-0.748,-0.4835,0.2645,0.616,-0.5065,-0.1095,-0.0175,-0.089,0.1175,-0.2265,-0.0605,-0.0995,0.1845,0.063,-0.0025
-0.748,-0.484,0.2645,0.616,-0.5065,-0.1095,-0.0145,-0.0765,0.123,-0.2225,-0.057,-0.0975,0.182,0.062,-0.0005
-0.755,-0.496,0.259,0.6255,-0.507,-0.1185,-0.0235,-0.091,0.108,-0.234,-0.069,-0.107,0.181,0.067,-0.006
-0.764,-0.5015,0.2625,0.6325,-0.513,-0.1195,-0.0335,-0.104,0.1005,-0.2395,-0.076,-0.1165,0.182,0.058,-0.0175
-0.7465,-0.485,0.2615,0.6155,-0.504,-0.1115,-0.027,-0.0865,0.112,-0.2305,-0.0685,-0.1085,0.1835,0.0625,-0.0195
-0.731,-0.47,0.261,0.6005,-0.496,-0.1045,-0.0145,-0.07,0.1245,-0.2165,-0.0545,-0.0945,0.1935,0.0545,-0.022
-0.7295,-0.475,0.2545,0.602,-0.492,-0.1105,-0.0095,-0.0775,0.128,-0.2145,-0.0515,-0.094,0.1975,0.05,-0.0085
-0.728,-0.4875,0.2405,0.6075,-0.484,-0.1235,-0.015,-0.0825,0.123,-0.22,-0.056,-0.099,0.1995,0.07,0.0085
-0.746,-0.491,0.255,0.6185,-0.5005,-0.118,-0.0145,-0.073,0.121,-0.2215,-0.057,-0.0995,0.2,0.079,0.0115
-0.7565,-0.4925,0.264,0.6245,-0.5105,-0.114,-0.0145,-0.081,0.1165,-0.2255,-0.0625,-0.1025,0.1975,0.0575,0.0205
-0.751,-0.492,0.259,0.6215,-0.5055,-0.1165,-0.019,-0.0815,0.1165,-0.2255,-0.061,-0.101,0.2,0.066,0.021
-0.7535,-0.4965,0.257,0.625,-0.5055,-0.1195,-0.0215,-0.0795,0.1155,-0.2265,-0.0615,-0.0995,0.2015,0.0705,0.0105
-0.748,-0.493,0.2545,0.6205,-0.501,-0.119,-0.022,-0.085,0.1145,-0.2265,-0.0655,-0.103,0.1975,0.061,0.008
-0.743,-0.485,0.258,0.614,-0.5005,-0.1135,-0.021,-0.0945,0.1125,-0.2275,-0.0645,-0.1035,0.192,0.072,0.0115
-0.7475,-0.484,0.2635,0.6155,-0.5055,-0.11,-0.02,-0.0965,0.1085,-0.2265,-0.0635,-0.1015,0.1905,0.063,0.005
-0.74,-0.4805,0.2595,0.61,-0.5,-0.1105,-0.019,-0.086,0.1115,-0.2275,-0.067,-0.1065,0.187,0.066,-0.0065
-0.745,-0.4795,0.266,0.612,-0.5055,-0.1065,-0.0265,-0.0885,0.1095,-0.231,-0.07,-0.1095,0.184,0.0735,-0.0085
-0.7445,-0.472,0.2725,0.6085,-0.5085,-0.1,-0.0225,-0.0885,0.114,-0.2225,-0.0605,-0.0985,0.188,0.0715,-0.0115
-0.7355,-0.4695,0.266,0.6025,-0.5005,-0.102,-0.0135,-0.08,0.1235,-0.2105,-0.0485,-0.087,0.192,0.0665,-0.0105
-0.749,-0.4835,0.2655,0.616,-0.507,-0.109,-0.0195,-0.085,0.1255,-0.21,-0.049,-0.088,0.1925,0.0695,-0.007
-0.749,-0.4795,0.2695,0.614,-0.5095,-0.105,-0.0185,-0.078,0.12,-0.22,-0.063,-0.1025,0.184,0.0675,-0.0045
-0.745,-0.4705,0.2745,0.6075,-0.5095,-0.098,-0.0135,-0.073,0.1205,-0.2195,-0.0635,-0.1025,0.1835,0.071,-0.0005
-0.746,-0.476,0.27,0.611,-0.508,-0.103,-0.016,-0.09,0.1075,-0.234,-0.075,-0.113,0.179,0.0785,0.0055
-0.758,-0.4815,0.2765,0.62,-0.5175,-0.1025,-0.0175,-0.098,0.0945,-0.2515,-0.0945,-0.1335,0.161,0.069,0.0065
-0.7635,-0.479,0.2845,0.621,-0.524,-0.097,-0.0165,-0.0965,0.103,-0.2425,-0.086,-0.1255,0.162,0.083,0.0065
-0.767,-0.478,0.289,0.622,-0.5275,-0.0945,-0.0115,-0.0935,0.1065,-0.236,-0.078,-0.115,0.1665,0.095,0.007
-0.7745,-0.479,0.2955,0.627,-0.535,-0.092,-0.0115,-0.1,0.11,-0.232,-0.074,-0.111,0.164,0.0825,0.0005
-0.759,-0.4615,0.2975,0.61,-0.528,-0.082,-0.01,-0.091,0.113,-0.2295,-0.0695,-0.106,0.166,0.085,0.0035
-0.7565,-0.46,0.2965,0.608,-0.5265,-0.0815,-0.0105,-0.0875,0.1145,-0.2285,-0.068,-0.1045,0.1705,0.091,0.0105
-0.7515,-0.4725,0.2785,0.612,-0.515,-0.097,-0.0155,-0.0925,0.11,-0.23,-0.0685,-0.1055,0.1705,0.077,0.0135
-0.7455,-0.47,0.2755,0.6075,-0.5105,-0.097,-0.015,-0.087,0.109,-0.2315,-0.0695,-0.105,0.174,0.073,0.015
-0.7595,-0.478,0.2815,0.619,-0.5205,-0.0985,-0.024,-0.0935,0.1145,-0.232,-0.0715,-0.1085,0.1785,0.08,0.0195
-0.7525,-0.4715,0.281,0.612,-0.517,-0.095,-0.021,-0.0915,0.1175,-0.2265,-0.0665,-0.1015,0.1805,0.088,0.0225
-0.7365,-0.4615,0.275,0.599,-0.5055,-0.0935,-0.02,-0.086,0.122,-0.22,-0.06,-0.0975,0.181,0.083,0.017
-0.742,-0.4725,0.2695,0.607,-0.5055,-0.1015,-0.023,-0.0895,0.1205,-0.2175,-0.0545,-0.094,0.183,0.065,0.007
-0.726,-0.465,0.2605,0.5955,-0.4935,-0.1025,-0.0275,-0.0895,0.1235,-0.207,-0.042,-0.0765,0.195,0.0575,0.005
-0.7065,-0.443,0.264,0.5745,-0.485,-0.0895,-0.031,-0.086,0.1275,-0.2025,-0.0375,-0.073,0.198,0.073,0.0055
-0.7125,-0.425,0.287,0.569,-0.5,-0.069,-0.025,-0.0855,0.13,-0.201,-0.0385,-0.0755,0.193,0.0815,0.003
-0.7285,-0.437,0.2915,0.583,-0.51,-0.0725,-0.024,-0.0835,0.131,-0.2075,-0.0495,-0.086,0.1795,0.0765,0.009
-0.7505,-0.453,0.2975,0.6015,-0.524,-0.078,-0.0185,-0.0855,0.1255,-0.2205,-0.0655,-0.104,0.1645,0.0685,0.0095
-0.7525,-0.457,0.2955,0.605,-0.524,-0.0805,-0.022,-0.0955,0.121,-0.2255,-0.071,-0.112,0.165,0.0665,0.0085
-0.7205,-0.4515,0.269,0.586,-0.495,-0.091,-0.031,-0.089,0.1245,-0.2215,-0.0665,-0.1075,0.178,0.0715,0.0175
-0.6895,-0.4335,0.256,0.5615,-0.4725,-0.0885,-0.0355,-0.081,0.1295,-0.2165,-0.059,-0.0985,0.189,0.057,0.016
-0.695,-0.434,0.261,0.5645,-0.478,-0.0865,-0.0335,-0.0875,0.127,-0.218,-0.0605,-0.099,0.186,0.076,0.008
-0.6985,-0.431,0.2675,0.5645,-0.483,-0.0815,-0.0385,-0.0865,0.128,-0.2165,-0.059,-0.099,0.183,0.0845,0.0095
-0.7065,-0.4345,0.272,0.5705,-0.4895,-0.081,-0.045,-0.0805,0.132,-0.2155,-0.0545,-0.095,0.186,0.068,0.016
-0.7195,-0.4465,0.273,0.583,-0.496,-0.0865,-0.0375,-0.0785,0.1365,-0.209,-0.0495,-0.0895,0.186,0.08,0.0205
-0.713,-0.4465,0.2665,0.5795,-0.49,-0.09,-0.0325,-0.082,0.135,-0.208,-0.0495,-0.0895,0.1815,0.082,0.0225
-0.708,-0.4425,0.266,0.5755,-0.4875,-0.088,-0.0445,-0.085,0.1295,-0.212,-0.0495,-0.089,0.184,0.0825,0.0225
-0.7005,-0.4315,0.269,0.566,-0.4845,-0.0815,-0.0515,-0.0815,0.1335,-0.2035,-0.04,-0.078,0.194,0.074,0.02
-0.7025,-0.423,0.279,0.563,-0.4905,-0.072,-0.046,-0.0765,0.1415,-0.192,-0.0275,-0.065,0.202,0.0715,0.023
-0.7315,-0.42,0.312,0.576,-0.522,-0.054,-0.039,-0.0735,0.15,-0.1805,-0.0165,-0.0545,0.2045,0.077,0.023
-0.7275,-0.4295,0.298,0.5785,-0.5125,-0.066,-0.041,-0.0815,0.1425,-0.191,-0.0265,-0.0645,0.2,0.0755,0.019
-0.719,-0.4435,0.2755,0.581,-0.4975,-0.084,-0.047,-0.084,0.1315,-0.2065,-0.0425,-0.081,0.1935,0.086,0.022
-0.7395,-0.4445,0.2955,0.592,-0.5175,-0.0745,-0.0365,-0.0845,0.1335,-0.2055,-0.044,-0.082,0.184,0.0825,0.025
-0.7375,-0.4485,0.289,0.593,-0.513,-0.08,-0.0395,-0.092,0.1245,-0.216,-0.053,-0.0905,0.178,0.084,0.0235
-0.728,-0.443,0.285,0.5855,-0.506,-0.079,-0.0455,-0.079,0.132,-0.213,-0.052,-0.09,0.1825,0.0835,0.019
-0.717,-0.428,0.289,0.5725,-0.503,-0.0695,-0.042,-0.072,0.142,-0.2005,-0.04,-0.078,0.187,0.0805,0.018
-0.7275,-0.431,0.2965,0.5795,-0.512,-0.0675,-0.044,-0.083,0.1395,-0.1995,-0.0375,-0.074,0.1835,0.086,0.0215
-0.723,-0.4265,0.296,0.575,-0.5095,-0.0655,-0.043,-0.0815,0.1445,-0.1905,-0.0275,-0.062,0.194,0.0765,0.021
-0.71,-0.4275,0.2825,0.569,-0.4965,-0.0725,-0.045,-0.0695,0.146,-0.1875,-0.0255,-0.0625,0.1985,0.0755,0.016
-0.7095,-0.4355,0.274,0.5725,-0.4915,-0.081,-0.0515,-0.0705,0.15,-0.1865,-0.0265,-0.0675,0.1995,0.073,0.014
-0.713,-0.437,0.2755,0.575,-0.4945,-0.081,-0.056,-0.079,0.1435,-0.193,-0.035,-0.076,0.196,0.072,0.0225
-0.727,-0.439,0.288,0.583,-0.5075,-0.0755,-0.0495,-0.0785,0.1385,-0.202,-0.0465,-0.088,0.184,0.074,0.0275
-0.7135,-0.4325,0.281,0.5735,-0.497,-0.076,-0.049,-0.0685,0.146,-0.2,-0.0445,-0.085,0.189,0.0795,0.0265
-0.6945,-0.4345,0.26,0.5645,-0.4775,-0.087,-0.0615,-0.0835,0.134,-0.212,-0.0575,-0.0955,0.1875,0.08,0.027
-0.682,-0.4365,0.2455,0.559,-0.4635,-0.0955,-0.063,-0.0985,0.123,-0.22,-0.063,-0.0985,0.187,0.0785,0.02
-0.697,-0.43,0.267,0.5635,-0.482,-0.0815,-0.052,-0.0865,0.133,-0.2115,-0.053,-0.089,0.189,0.064,0.019
-0.7,-0.427,0.273,0.5635,-0.4865,-0.077,-0.059,-0.087,0.1335,-0.2085,-0.05,-0.0845,0.1925,0.068,0.0185
-0.696,-0.431,0.2655,0.5635,-0.4805,-0.083,-0.064,-0.0745,0.1315,-0.208,-0.047,-0.081,0.1985,0.0785,0.0235
-0.7045,-0.433,0.2715,0.5685,-0.488,-0.081,-0.062,-0.072,0.1385,-0.203,-0.0435,-0.0785,0.199,0.0545,0.022
-0.6845,-0.421,0.2635,0.5525,-0.474,-0.0785,-0.0655,-0.079,0.141,-0.197,-0.0345,-0.067,0.2085,0.0655,0.0145
-0.6995,-0.4245,0.275,0.562,-0.487,-0.075,-0.062,-0.0795,0.137,-0.2,-0.0385,-0.071,0.203,0.083,0.016
-0.7185,-0.433,0.2855,0.5755,-0.502,-0.0735,-0.0615,-0.081,0.136,-0.207,-0.048,-0.0825,0.189,0.087,0.018
-0.704,-0.42,0.284,0.562,-0.494,-0.068,-0.0545,-0.0665,0.1425,-0.1965,-0.037,-0.0735,0.189,0.08,0.022
-0.704,-0.4255,0.2775,0.5645,-0.4905,-0.074,-0.0565,-0.075,0.1335,-0.206,-0.047,-0.0845,0.1805,0.0775,0.0255
-0.7015,-0.4305,0.271,0.566,-0.4865,-0.0795,-0.067,-0.0865,0.1255,-0.2175,-0.0595,-0.0945,0.1775,0.072,0.025
-0.7105,-0.431,0.2795,0.5705,-0.495,-0.0755,-0.0645,-0.079,0.131,-0.2125,-0.056,-0.0915,0.1785,0.077,0.02
-0.718,-0.4395,0.2785,0.5785,-0.4985,-0.0805,-0.0635,-0.076,0.134,-0.2085,-0.0525,-0.088,0.179,0.0755,0.0185
-0.7145,-0.439,0.2755,0.5765,-0.495,-0.082,-0.0695,-0.078,0.134,-0.205,-0.048,-0.081,0.187,0.0565,0.0235
-0.7165,-0.438,0.2785,0.5775,-0.4975,-0.08,-0.071,-0.0755,0.135,-0.2055,-0.0485,-0.0825,0.1855,0.0675,0.0265
-0.7065,-0.4355,0.271,0.571,-0.489,-0.082,-0.0735,-0.077,0.1345,-0.202,-0.044,-0.0795,0.187,0.0825,0.016
-0.7035,-0.431,0.2725,0.5675,-0.488,-0.0795,-0.0775,-0.079,0.1335,-0.2005,-0.0385,-0.0745,0.189,0.084,0.0125
-0.6925,-0.4205,0.272,0.5565,-0.4825,-0.074,-0.072,-0.0725,0.1445,-0.19,-0.0295,-0.0645,0.197,0.068,0.013
-0.688,-0.4225,0.266,0.5555,-0.477,-0.0785,-0.0745,-0.0715,0.145,-0.1865,-0.0235,-0.0575,0.211,0.0775,0.0155
-0.706,-0.4335,0.2725,0.5695,-0.489,-0.0805,-0.079,-0.075,0.135,-0.1975,-0.035,-0.0685,0.205,0.08,0.019
-0.6895,-0.424,0.2655,0.5565,-0.4775,-0.079,-0.0785,-0.081,0.1315,-0.2045,-0.0445,-0.0765,0.2015,0.0655,0.014
-0.6815,-0.414,0.2675,0.5475,-0.4745,-0.073,-0.0815,-0.073,0.136,-0.203,-0.043,-0.076,0.204,0.081,0.006
-0.6975,-0.4185,0.279,0.558,-0.4885,-0.0695,-0.085,-0.0755,0.134,-0.2065,-0.0495,-0.0875,0.1945,0.087,0.0075
-0.703,-0.42,0.2825,0.5615,-0.4925,-0.0685,-0.0795,-0.082,0.1265,-0.2135,-0.0575,-0.0955,0.189,0.0745,0.0145
-0.71,-0.419,0.291,0.5645,-0.5005,-0.064,-0.068,-0.086,0.127,-0.215,-0.058,-0.095,0.186,0.073,0.0095
-0.714,-0.4215,0.2925,0.5675,-0.5035,-0.0645,-0.071,-0.089,0.122,-0.221,-0.061,-0.1005,0.1795,0.066,0.01
-0.7165,-0.4205,0.296,0.5685,-0.5065,-0.062,-0.0725,-0.071,0.124,-0.2195,-0.0635,-0.1035,0.1755,0.073,0.0125
-0.713,-0.417,0.2965,0.565,-0.5045,-0.0605,-0.064,-0.0695,0.1365,-0.206,-0.0535,-0.0945,0.1785,0.0805,0.0105
-0.702,-0.4145,0.2875,0.5585,-0.495,-0.0635,-0.0635,-0.0705,0.1375,-0.2025,-0.048,-0.0885,0.1825,0.0705,0.012
-0.703,-0.417,0.286,0.56,-0.4945,-0.065,-0.068,-0.073,0.134,-0.2045,-0.0485,-0.088,0.1865,0.07,0.0105
-0.7085,-0.422,0.287,0.5655,-0.498,-0.0675,-0.0655,-0.075,0.1375,-0.1985,-0.0415,-0.082,0.193,0.07,0.0115
-0.7105,-0.426,0.2845,0.5685,-0.4975,-0.071,-0.0605,-0.0665,0.1405,-0.1965,-0.0415,-0.0825,0.196,0.0805,0.0145
-0.7155,-0.4385,0.2775,0.577,-0.4965,-0.0805,-0.058,-0.0705,0.1375,-0.1995,-0.0435,-0.083,0.1975,0.0705,0.0195
-0.716,-0.444,0.272,0.58,-0.494,-0.086,-0.057,-0.069,0.136,-0.202,-0.0455,-0.0825,0.198,0.0555,0.0225
-0.713,-0.4405,0.2725,0.577,-0.4925,-0.084,-0.061,-0.0695,0.1385,-0.196,-0.0405,-0.079,0.2045,0.056,0.0175
-0.719,-0.448,0.271,0.5835,-0.495,-0.0885,-0.0595,-0.0795,0.1415,-0.1895,-0.034,-0.075,0.205,0.0505,0.0105
-0.7115,-0.4425,0.269,0.577,-0.49,-0.087,-0.0565,-0.073,0.143,-0.1885,-0.033,-0.076,0.201,0.0605,0.003
-0.7045,-0.431,0.2735,0.5675,-0.489,-0.079,-0.054,-0.062,0.145,-0.186,-0.031,-0.074,0.2055,0.073,0.01
-0.7085,-0.4275,0.281,0.568,-0.495,-0.073,-0.0495,-0.059,0.1555,-0.177,-0.0225,-0.0675,0.2125,0.0785,0.013
-0.705,-0.4205,0.2845,0.5625,-0.4945,-0.068,-0.055,-0.057,0.164,-0.165,-0.013,-0.0605,0.219,0.074,0.008
-0.714,-0.4315,0.2825,0.5725,-0.4985,-0.0745,-0.055,-0.0535,0.1705,-0.1605,-0.0085,-0.0605,0.2185,0.0785,0.01
-0.717,-0.4415,0.2755,0.5795,-0.496,-0.083,-0.056,-0.058,0.178,-0.148,0.001,-0.057,0.228,0.079,0.0035
-0.7105,-0.4325,0.278,0.5715,-0.4945,-0.077,-0.056,-0.054,0.191,-0.129,0.017,-0.047,0.239,0.078,-0.004
-0.7185,-0.43,0.2885,0.574,-0.5035,-0.071,-0.056,-0.051,0.2005,-0.1195,0.023,-0.0465,0.239,0.094,-0.009
-0.725,-0.4285,0.2965,0.577,-0.511,-0.066,-0.06,-0.057,0.207,-0.109,0.029,-0.0475,0.243,0.0975,-0.012
-0.721,-0.418,0.3025,0.5695,-0.512,-0.0575,-0.054,-0.0435,0.224,-0.0955,0.0365,-0.0505,0.24,0.1055,-0.0215
-0.708,-0.409,0.2995,0.5585,-0.504,-0.0545,-0.0545,-0.032,0.2475,-0.0745,0.048,-0.0495,0.2425,0.104,-0.033
-0.706,-0.404,0.302,0.555,-0.504,-0.051,-0.0555,-0.0275,0.2745,-0.044,0.075,-0.0355,0.256,0.1015,-0.039
-0.706,-0.4035,0.3025,0.5545,-0.504,-0.0505,-0.055,-0.026,0.2985,-0.014,0.1,-0.0205,0.2695,0.109,-0.05
-0.6925,-0.4035,0.289,0.548,-0.4905,-0.0575,-0.063,-0.0175,0.328,0.016,0.123,-0.009,0.2855,0.109,-0.0615
-0.6885,-0.398,0.2905,0.5435,-0.4895,-0.0535,-0.067,-0.0065,0.354,0.044,0.142,-0.0015,0.2965,0.109,-0.0695
-0.686,-0.39,0.296,0.538,-0.491,-0.047,-0.0655,-0.003,0.368,0.0645,0.159,0.01,0.3055,0.104,-0.079
-0.673,-0.3865,0.2865,0.53,-0.4795,-0.05,-0.0645,0.001,0.3785,0.08,0.1755,0.0255,0.32,0.102,-0.0925
-0.679,-0.391,0.288,0.535,-0.4835,-0.0515,-0.057,-0.002,0.381,0.083,0.1755,0.0255,0.32,0.0945,-0.099
-0.7045,-0.404,0.3005,0.554,-0.5025,-0.0515,-0.0455,0.0015,0.37,0.0625,0.1575,0.0135,0.3055,0.09,-0.0985
-0.714,-0.4085,0.3055,0.5615,-0.51,-0.0515,-0.04,0.0065,0.3585,0.044,0.1415,0.0065,0.2985,0.0925,-0.1
-0.7185,-0.4045,0.314,0.5615,-0.5165,-0.045,-0.0355,0.004,0.3465,0.0235,0.1245,-0.004,0.289,0.099,-0.1065
-0.7475,-0.4075,0.34,0.5775,-0.544,-0.0335,-0.024,-0.002,0.309,-0.0185,0.0925,-0.022,0.267,0.094,-0.111
-0.7775,-0.412,0.3655,0.5945,-0.5715,-0.023,-0.0105,-0.0125,0.271,-0.0555,0.066,-0.034,0.2505,0.09,-0.111
-0.7835,-0.414,0.369,0.5985,-0.576,-0.0225,-0.0055,-0.0225,0.247,-0.0835,0.0485,-0.0375,0.2485,0.104,-0.111
-0.77,-0.4215,0.348,0.596,-0.559,-0.0365,-0.011,-0.036,0.2275,-0.099,0.0425,-0.033,0.2545,0.104,-0.118
-0.7475,-0.409,0.339,0.578,-0.543,-0.035,-0.008,-0.0395,0.2145,-0.113,0.043,-0.0185,0.2625,0.115,-0.134
-0.7365,-0.389,0.3475,0.563,-0.542,-0.021,-0.0065,-0.058,0.177,-0.1585,0.016,-0.0215,0.2545,0.1195,-0.1375
-0.7405,-0.3815,0.359,0.561,-0.55,-0.011,-0.013,-0.076,0.15,-0.1855,0.0025,-0.013,0.2585,0.132,-0.1335
-0.752,-0.3825,0.3695,0.567,-0.5605,-0.0065,-0.005,-0.066,0.136,-0.2135,-0.012,-0.0085,0.2575,0.1385,-0.1255
-0.7475,-0.3975,0.35,0.573,-0.549,-0.024,0.0,-0.053,0.118,-0.2525,-0.0345,-0.0075,0.2555,0.1075,-0.114
-0.732,-0.409,0.323,0.5705,-0.5275,-0.043,-0.004,-0.053,0.102,-0.2735,-0.0365,0.0165,0.275,0.0935,-0.109
-0.731,-0.4295,0.301,0.58,-0.516,-0.064,-0.0065,-0.0625,0.067,-0.307,-0.048,0.0285,0.285,0.0675,-0.0915
-0.6995,-0.434,0.2655,0.567,-0.4825,-0.0845,-0.0095,-0.0455,0.0445,-0.35,-0.071,0.0355,0.291,0.038,-0.074
-0.684,-0.437,0.247,0.5605,-0.4655,-0.095,-0.0075,-0.0305,0.003,-0.4215,-0.1235,0.0195,0.2715,0.0415,-0.0595
-0.691,-0.4445,0.2465,0.568,-0.469,-0.0985,0.004,-0.039,-0.0665,-0.502,-0.1775,0.0035,0.2455,0.0365,-0.029
-0.6755,-0.442,0.2335,0.5585,-0.454,-0.1045,0.013,-0.052,-0.132,-0.5785,-0.229,-0.0035,0.2265,0.0215,0.0015
-0.6855,-0.4645,0.221,0.575,-0.4535,-0.122,0.02,-0.0685,-0.1985,-0.663,-0.295,-0.022,0.1995,0.0135,0.0195
-0.7,-0.484,0.216,0.592,-0.458,-0.134,0.029,-0.077,-0.2575,-0.7435,-0.359,-0.041,0.175,-0.016,0.043
-0.696,-0.499,0.197,0.5975,-0.4465,-0.151,0.0265,-0.0975,-0.3335,-0.837,-0.433,-0.0695,0.1495,-0.0325,0.084
-0.677,-0.5185,0.1585,0.5975,-0.4175,-0.1795,0.0205,-0.1135,-0.4185,-0.9435,-0.524,-0.1175,0.119,-0.0415,0.1305
-0.6825,-0.525,0.157,0.6035,-0.4195,-0.1835,0.0255,-0.132,-0.4935,-1.0315,-0.599,-0.1465,0.092,-0.0555,0.1695
-0.718,-0.546,0.172,0.632,-0.445,-0.1865,0.0375,-0.1595,-0.5715,-1.1105,-0.6625,-0.17,0.058,-0.0635,0.2025
-0.701,-0.5705,0.13,0.6355,-0.4155,-0.22,0.045,-0.1515,-0.627,-1.1805,-0.726,-0.2015,0.032,-0.0745,0.232
-0.6825,-0.585,0.0975,0.634,-0.39,-0.2435,0.0615,-0.1365,-0.654,-1.2185,-0.765,-0.213,0.019,-0.08,0.257
-0.69,-0.606,0.084,0.648,-0.387,-0.2605,0.085,-0.1555,-0.6975,-1.2575,-0.7955,-0.223,-0.001,-0.0895,0.279
-0.704,-0.6285,0.0755,0.666,-0.3895,-0.276,0.0965,-0.195,-0.753,-1.3025,-0.8365,-0.2395,-0.022,-0.103,0.302
-0.724,-0.6425,0.081,0.683,-0.4025,-0.28,0.1115,-0.2225,-0.8005,-1.351,-0.8935,-0.2825,-0.0615,-0.1335,0.3185
-0.733,-0.6555,0.078,0.694,-0.4055,-0.288,0.1245,-0.2395,-0.826,-1.3735,-0.929,-0.3185,-0.0895,-0.1345,0.32
-0.7455,-0.6755,0.07,0.71,-0.4075,-0.302,0.1385,-0.252,-0.8465,-1.388,-0.965,-0.366,-0.128,-0.123,0.3365
-0.748,-0.6905,0.0575,0.7195,-0.403,-0.316,0.1585,-0.2905,-0.8945,-1.4325,-1.028,-0.4465,-0.1965,-0.1315,0.363
-0.7555,-0.7075,0.0475,0.7315,-0.4015,-0.3295,0.176,-0.3295,-0.916,-1.4475,-1.064,-0.5025,-0.243,-0.138,0.3675
-0.7675,-0.7245,0.0425,0.746,-0.405,-0.3405,0.1945,-0.3345,-0.9025,-1.4335,-1.0725,-0.5335,-0.2655,-0.156,0.358
-0.775,-0.7375,0.037,0.7565,-0.406,-0.35,0.2045,-0.3515,-0.9095,-1.4305,-1.0775,-0.5545,-0.2825,-0.1725,0.368
-0.7845,-0.7405,0.044,0.7625,-0.414,-0.348,0.216,-0.3805,-0.9395,-1.4465,-1.097,-0.5835,-0.3075,-0.1665,0.395
-0.802,-0.7345,0.0675,0.7685,-0.435,-0.333,0.224,-0.416,-0.972,-1.465,-1.1165,-0.6095,-0.332,-0.1425,0.4065
-0.8185,-0.738,0.0805,0.778,-0.4495,-0.328,0.2215,-0.469,-1.0135,-1.4795,-1.1265,-0.6265,-0.35,-0.128,0.4325
-0.8255,-0.7445,0.081,0.785,-0.453,-0.331,0.2285,-0.5215,-1.05,-1.486,-1.131,-0.64,-0.3665,-0.132,0.461
-0.8225,-0.756,0.0665,0.789,-0.4445,-0.344,0.2305,-0.5725,-1.0785,-1.483,-1.127,-0.6495,-0.3775,-0.1525,0.4805
-0.816,-0.786,0.03,0.801,-0.423,-0.3775,0.2345,-0.612,-1.0965,-1.471,-1.114,-0.6535,-0.379,-0.181,0.5015
-0.817,-0.8255,-0.0085,0.8215,-0.4045,-0.4165,0.243,-0.652,-1.1,-1.442,-1.087,-0.6495,-0.376,-0.211,0.508
-0.8155,-0.8685,-0.053,0.842,-0.3815,-0.4605,0.2485,-0.697,-1.0835,-1.388,-1.034,-0.6195,-0.3525,-0.2535,0.5105
-0.795,-0.9205,-0.1255,0.858,-0.335,-0.5225,0.2655,-0.7225,-1.0455,-1.324,-0.972,-0.5785,-0.317,-0.312,0.504
-0.7765,-0.993,-0.2165,0.8845,-0.28,-0.604,0.289,-0.7065,-0.99,-1.2505,-0.902,-0.5335,-0.2775,-0.387,0.496
-0.7715,-1.0725,-0.301,0.922,-0.2355,-0.686,0.3225,-0.6755,-0.9295,-1.1765,-0.837,-0.497,-0.2445,-0.461,0.483
-0.784,-1.1365,-0.353,0.96,-0.215,-0.7445,0.3445,-0.681,-0.8945,-1.125,-0.7955,-0.487,-0.2345,-0.51,0.4635
-0.7805,-1.172,-0.392,0.9765,-0.194,-0.782,0.347,-0.694,-0.862,-1.075,-0.7515,-0.469,-0.2135,-0.547,0.4635
-0.761,-1.1775,-0.417,0.9695,-0.172,-0.797,0.333,-0.7115,-0.8365,-1.04,-0.7245,-0.4625,-0.197,-0.554,0.4665
-0.7485,-1.179,-0.431,0.964,-0.1585,-0.8045,0.31,-0.721,-0.8105,-1.007,-0.697,-0.452,-0.175,-0.551,0.46
-0.725,-1.1765,-0.4525,0.951,-0.1365,-0.814,0.2875,-0.7245,-0.78,-0.97,-0.664,-0.433,-0.1445,-0.5655,0.4565
-0.709,-1.171,-0.463,0.94,-0.123,-0.8165,0.2645,-0.738,-0.759,-0.9415,-0.6415,-0.4215,-0.1235,-0.5735,0.458
-0.691,-1.164,-0.4735,0.9275,-0.1085,-0.8185,0.249,-0.7385,-0.7325,-0.9125,-0.619,-0.407,-0.102,-0.5815,0.455
-0.6825,-1.158,-0.4765,0.9205,-0.103,-0.817,0.2345,-0.7315,-0.7025,-0.887,-0.6025,-0.4035,-0.087,-0.587,0.4495
-0.668,-1.144,-0.4765,0.9065,-0.096,-0.81,0.211,-0.739,-0.684,-0.8705,-0.5935,-0.4035,-0.0735,-0.589,0.4485
-0.637,-1.1125,-0.476,0.875,-0.0805,-0.794,0.179,-0.7335,-0.66,-0.852,-0.5825,-0.4005,-0.059,-0.5735,0.443
-0.6195,-1.0865,-0.467,0.853,-0.076,-0.7765,0.1565,-0.717,-0.6375,-0.8385,-0.5765,-0.4055,-0.052,-0.5545,0.434
-0.609,-1.065,-0.456,0.837,-0.0765,-0.76,0.1465,-0.698,-0.615,-0.8255,-0.572,-0.4105,-0.0505,-0.552,0.4225
-0.6,-1.0495,-0.4495,0.8245,-0.0755,-0.749,0.144,-0.6655,-0.58,-0.7995,-0.551,-0.4,-0.0395,-0.5475,0.408
-0.586,-1.0385,-0.4525,0.8125,-0.067,-0.745,0.1315,-0.6475,-0.557,-0.7805,-0.531,-0.3845,-0.024,-0.541,0.392
-0.567,-1.0195,-0.4525,0.793,-0.0575,-0.7355,0.111,-0.632,-0.538,-0.7655,-0.5175,-0.3725,-0.0105,-0.5325,0.379
-0.5415,-0.989,-0.447,0.765,-0.047,-0.7175,0.0845,-0.6135,-0.516,-0.7445,-0.4955,-0.349,0.0145,-0.5185,0.369
-0.52,-0.957,-0.437,0.7385,-0.0415,-0.6965,0.0555,-0.5925,-0.4955,-0.7235,-0.472,-0.3235,0.0395,-0.4905,0.358
-0.5105,-0.9295,-0.419,0.72,-0.0455,-0.674,0.0375,-0.573,-0.4705,-0.7045,-0.458,-0.3135,0.049,-0.474,0.3495
-0.508,-0.9085,-0.4005,0.7085,-0.054,-0.654,0.019,-0.544,-0.436,-0.6745,-0.431,-0.2915,0.0685,-0.4585,0.3405
-0.495,-0.894,-0.399,0.6945,-0.048,-0.646,-0.0035,-0.5085,-0.3955,-0.638,-0.3955,-0.2655,0.094,-0.4405,0.3255
-0.4715,-0.8765,-0.405,0.6735,-0.033,-0.64,-0.03,-0.4725,-0.3475,-0.5945,-0.3565,-0.239,0.1225,-0.43,0.3045
-0.451,-0.852,-0.4015,0.6515,-0.0245,-0.6265,-0.0515,-0.4345,-0.307,-0.558,-0.3245,-0.2165,0.1475,-0.4165,0.2865
-0.4445,-0.8355,-0.3915,0.64,-0.0265,-0.613,-0.068,-0.41,-0.276,-0.536,-0.305,-0.209,0.1605,-0.418,0.2815
-0.4435,-0.823,-0.3795,0.633,-0.032,-0.601,-0.0885,-0.3905,-0.2465,-0.513,-0.2885,-0.2075,0.1735,-0.402,0.2755
-0.4555,-0.8085,-0.353,0.6315,-0.051,-0.58,-0.1025,-0.376,-0.2315,-0.5065,-0.2895,-0.22,0.169,-0.365,0.268
-0.469,-0.797,-0.328,0.633,-0.0705,-0.562,-0.113,-0.366,-0.2185,-0.504,-0.2935,-0.2345,0.1595,-0.3405,0.259
-0.466,-0.7915,-0.326,0.629,-0.07,-0.558,-0.122,-0.3515,-0.2005,-0.4925,-0.2865,-0.2385,0.163,-0.342,0.252
-0.4745,-0.7865,-0.3125,0.6305,-0.081,-0.549,-0.1275,-0.3385,-0.187,-0.48,-0.2765,-0.2365,0.1655,-0.3435,0.2455
-0.494,-0.7725,-0.278,0.6335,-0.108,-0.525,-0.126,-0.329,-0.174,-0.4665,-0.2645,-0.231,0.1635,-0.3315,0.2425
-0.525,-0.7555,-0.2305,0.6405,-0.1475,-0.4925,-0.118,-0.3125,-0.1545,-0.45,-0.253,-0.233,0.1545,-0.304,0.237
-0.539,-0.735,-0.1965,0.637,-0.1715,-0.4655,-0.1075,-0.2935,-0.133,-0.435,-0.2455,-0.2405,0.1435,-0.278,0.219
-0.548,-0.7255,-0.1775,0.6365,-0.1855,-0.451,-0.1065,-0.281,-0.119,-0.431,-0.243,-0.2425,0.138,-0.2645,0.2135
-0.5705,-0.7135,-0.143,0.642,-0.2135,-0.4275,-0.111,-0.274,-0.109,-0.4215,-0.234,-0.24,0.137,-0.255,0.211
-0.5855,-0.688,-0.1025,0.6365,-0.2415,-0.3945,-0.1015,-0.257,-0.0835,-0.3925,-0.209,-0.226,0.1395,-0.2455,0.1995
-0.6035,-0.677,-0.0735,0.6405,-0.265,-0.375,-0.0925,-0.2375,-0.067,-0.381,-0.2,-0.226,0.131,-0.232,0.1915
-0.621,-0.6685,-0.0475,0.6445,-0.2865,-0.3575,-0.0865,-0.2295,-0.054,-0.3765,-0.2005,-0.2375,0.1195,-0.2225,0.184
-0.6365,-0.6515,-0.015,0.644,-0.311,-0.333,-0.0845,-0.2205,-0.0405,-0.366,-0.194,-0.2405,0.114,-0.1975,0.172
-0.645,-0.631,0.014,0.638,-0.3295,-0.308,-0.08,-0.206,-0.0315,-0.3615,-0.191,-0.239,0.111,-0.1725,0.1635
-0.6485,-0.608,0.0405,0.628,-0.3445,-0.283,-0.0795,-0.1955,-0.0125,-0.341,-0.1715,-0.223,0.123,-0.152,0.152
-0.655,-0.6025,0.053,0.629,-0.354,-0.274,-0.0825,-0.1935,-0.004,-0.332,-0.1635,-0.2235,0.125,-0.149,0.1415
-0.6665,-0.6,0.066,0.633,-0.366,-0.2665,-0.0715,-0.184,0.005,-0.3275,-0.1605,-0.2225,0.12,-0.1255,0.1375
-0.666,-0.5865,0.08,0.6265,-0.373,-0.2525,-0.0795,-0.1755,0.0135,-0.319,-0.151,-0.2115,0.129,-0.1085,0.1295
-0.67,-0.5705,0.0995,0.62,-0.3845,-0.235,-0.088,-0.1675,0.019,-0.316,-0.149,-0.2115,0.1315,-0.122,0.12
-0.672,-0.5525,0.1195,0.6125,-0.396,-0.216,-0.081,-0.156,0.0295,-0.3095,-0.1465,-0.2135,0.1265,-0.091,0.113
-0.673,-0.542,0.131,0.6075,-0.402,-0.205,-0.0745,-0.1465,0.04,-0.302,-0.143,-0.2145,0.122,-0.0755,0.1065
-0.704,-0.54,0.164,0.622,-0.434,-0.1875,-0.0635,-0.1315,0.054,-0.2885,-0.131,-0.2065,0.1225,-0.084,0.0985
-0.718,-0.5415,0.1765,0.63,-0.4475,-0.182,-0.0595,-0.1205,0.066,-0.2775,-0.122,-0.199,0.124,-0.0735,0.0955
-0.7005,-0.5305,0.17,0.6155,-0.4355,-0.1795,-0.062,-0.114,0.071,-0.271,-0.116,-0.1925,0.131,-0.058,0.0855
-0.7055,-0.5185,0.1875,0.612,-0.4465,-0.165,-0.062,-0.1115,0.078,-0.2625,-0.1075,-0.187,0.1355,-0.06,0.0795
-0.716,-0.513,0.203,0.6145,-0.4595,-0.155,-0.0565,-0.104,0.089,-0.2495,-0.0925,-0.1775,0.1385,-0.0655,0.073
-0.703,-0.5015,0.201,0.602,-0.452,-0.1505,-0.0545,-0.101,0.0925,-0.244,-0.089,-0.1705,0.146,-0.0435,0.067
-0.7055,-0.4975,0.208,0.6015,-0.457,-0.145,-0.05,-0.0965,0.0985,-0.2435,-0.0895,-0.1715,0.1425,-0.04,0.0725
-0.713,-0.4935,0.2195,0.6035,-0.466,-0.137,-0.0445,-0.084,0.1095,-0.2325,-0.076,-0.1605,0.1445,-0.0445,0.069
-0.7155,-0.495,0.2205,0.6055,-0.468,-0.1375,-0.047,-0.0815,0.115,-0.224,-0.0685,-0.15,0.151,-0.032,0.0615
-0.714,-0.491,0.223,0.6025,-0.4685,-0.134,-0.043,-0.079,0.1205,-0.2205,-0.0615,-0.147,0.152,-0.0145,0.0585
-0.7175,-0.4865,0.231,0.602,-0.4745,-0.1275,-0.039,-0.0755,0.1265,-0.215,-0.058,-0.1445,0.153,-0.008,0.0535
-0.725,-0.4765,0.2485,0.6005,-0.487,-0.114,-0.038,-0.07,0.13,-0.21,-0.0525,-0.1385,0.156,-0.008,0.0465
-0.74,-0.466,0.274,0.603,-0.507,-0.096,-0.0315,-0.0685,0.1355,-0.202,-0.044,-0.128,0.16,0.0175,0.0425
-0.758,-0.4725,0.2855,0.615,-0.5215,-0.0935,-0.0295,-0.0745,0.137,-0.197,-0.04,-0.126,0.1605,0.0305,0.039
-0.7505,-0.462,0.289,0.6065,-0.52,-0.0865,-0.034,-0.0775,0.136,-0.1945,-0.037,-0.1235,0.162,0.031,0.033
-0.7505,-0.4515,0.2985,0.601,-0.5245,-0.0765,-0.03,-0.076,0.14,-0.1875,-0.0285,-0.113,0.165,0.045,0.0235
-0.7525,-0.447,0.306,0.6,-0.529,-0.0705,-0.0245,-0.0735,0.1465,-0.178,-0.017,-0.1025,0.1685,0.052,0.02
-0.7505,-0.44,0.3105,0.595,-0.5305,-0.065,-0.0285,-0.0715,0.153,-0.1685,-0.006,-0.0915,0.177,0.053,0.0185
-0.7475,-0.4315,0.316,0.5895,-0.532,-0.058,-0.0325,-0.0715,0.1535,-0.1645,0.0,-0.0855,0.1815,0.0665,0.0165
-0.745,-0.4215,0.323,0.5835,-0.534,-0.0495,-0.0325,-0.073,0.154,-0.1615,0.0015,-0.0835,0.1835,0.0855,0.013
-0.755,-0.4225,0.3325,0.5885,-0.544,-0.045,-0.0245,-0.0755,0.1535,-0.162,0.0005,-0.084,0.18,0.094,0.0105
-0.7515,-0.4185,0.3335,0.585,-0.5425,-0.0425,-0.0275,-0.079,0.1505,-0.168,-0.0035,-0.0885,0.1775,0.098,0.014
-0.7575,-0.415,0.342,0.5865,-0.55,-0.0365,-0.039,-0.079,0.149,-0.168,-0.0045,-0.091,0.1785,0.1005,0.014
-0.773,-0.416,0.357,0.5945,-0.565,-0.0295,-0.0345,-0.0785,0.15,-0.168,-0.0055,-0.094,0.1715,0.1095,0.011
-0.7565,-0.4035,0.353,0.5805,-0.555,-0.0255,-0.0335,-0.0805,0.1525,-0.167,-0.004,-0.0935,0.1735,0.114,0.009
-0.7395,-0.39,0.3495,0.5645,-0.5445,-0.0205,-0.0415,-0.0805,0.154,-0.1635,-0.0015,-0.0925,0.1795,0.108,0.012
-0.732,-0.39,0.342,0.561,-0.537,-0.024,-0.039,-0.073,0.158,-0.162,-0.002,-0.093,0.179,0.108,0.0145
-0.758,-0.408,0.35,0.583,-0.554,-0.029,-0.0335,-0.0695,0.162,-0.1605,-0.0005,-0.0935,0.1735,0.1025,0.0165
-0.7795,-0.42,0.3595,0.5995,-0.5695,-0.0305,-0.0355,-0.071,0.166,-0.1585,0.0005,-0.0965,0.171,0.1025,0.017
-0.7695,-0.421,0.3485,0.5955,-0.559,-0.0365,-0.0385,-0.072,0.1635,-0.1655,-0.007,-0.1015,0.1715,0.0995,0.0145
-0.765,-0.4205,0.344,0.5925,-0.5545,-0.038,-0.042,-0.075,0.163,-0.1655,-0.0075,-0.101,0.173,0.0885,0.016
-0.7765,-0.421,0.355,0.599,-0.566,-0.033,-0.041,-0.0725,0.1675,-0.161,-0.003,-0.099,0.1775,0.093,0.0155
-0.8015,-0.4265,0.3745,0.614,-0.588,-0.0265,-0.041,-0.068,0.166,-0.166,-0.007,-0.1035,0.1735,0.0995,0.0175
-0.7785,-0.414,0.3645,0.596,-0.5715,-0.025,-0.0455,-0.073,0.1655,-0.1635,-0.004,-0.1005,0.1735,0.107,0.02
-0.75,-0.4045,0.3455,0.5775,-0.548,-0.0295,-0.0505,-0.0785,0.167,-0.159,0.0005,-0.095,0.1775,0.111,0.0205
-0.753,-0.4055,0.348,0.5795,-0.5505,-0.029,-0.051,-0.074,0.171,-0.1555,0.0055,-0.0945,0.1775,0.116,0.0225
-0.7505,-0.404,0.3465,0.5775,-0.5485,-0.029,-0.0525,-0.073,0.171,-0.1565,0.0055,-0.0945,0.179,0.1205,0.023
-0.757,-0.4055,0.3515,0.581,-0.554,-0.027,-0.0565,-0.076,0.167,-0.159,0.0025,-0.097,0.1785,0.1185,0.0205
-0.763,-0.418,0.345,0.5905,-0.554,-0.0365,-0.0695,-0.087,0.158,-0.1675,-0.006,-0.108,0.177,0.117,0.022
-0.75,-0.42,0.33,0.585,-0.54,-0.045,-0.0805,-0.0935,0.1535,-0.1695,-0.009,-0.1105,0.1805,0.1215,0.019
-0.7445,-0.4015,0.343,0.573,-0.5435,-0.029,-0.0765,-0.086,0.162,-0.1605,0.0,-0.1055,0.1795,0.1215,0.0155
-0.74,-0.4025,0.3375,0.5715,-0.539,-0.0325,-0.0785,-0.0835,0.1635,-0.1605,0.0,-0.105,0.1785,0.1235,0.013
-0.7465,-0.419,0.3275,0.5825,-0.537,-0.046,-0.0845,-0.0915,0.1575,-0.164,-0.002,-0.103,0.1855,0.126,0.0125
-0.7355,-0.406,0.329,0.5705,-0.532,-0.0385,-0.0815,-0.084,0.165,-0.158,0.0035,-0.098,0.1875,0.12,0.015
-0.707,-0.3685,0.3385,0.538,-0.523,-0.015,-0.0735,-0.0665,0.184,-0.14,0.0205,-0.0835,0.189,0.123,0.0125
-0.725,-0.367,0.358,0.546,-0.5415,-0.0045,-0.072,-0.0665,0.1845,-0.139,0.023,-0.082,0.1855,0.128,0.0125
-0.748,-0.391,0.3565,0.5695,-0.5525,-0.017,-0.078,-0.0735,0.1775,-0.147,0.014,-0.092,0.1815,0.128,0.0095
-0.752,-0.4015,0.3505,0.577,-0.5515,-0.0255,-0.0795,-0.074,0.183,-0.143,0.0165,-0.092,0.1805,0.1295,0.01
-0.727,-0.386,0.341,0.5565,-0.534,-0.0225,-0.0775,-0.072,0.185,-0.1415,0.019,-0.09,0.1795,0.1245,0.0105
-0.7155,-0.376,0.3395,0.5455,-0.5275,-0.018,-0.0795,-0.0675,0.1905,-0.138,0.0215,-0.0885,0.1785,0.1235,0.008
-0.7215,-0.3745,0.3475,0.548,-0.5345,-0.0135,-0.0795,-0.056,0.2015,-0.1255,0.0335,-0.0745,0.186,0.1355,0.007
-0.718,-0.3655,0.3525,0.542,-0.5355,-0.0065,-0.0795,-0.0645,0.198,-0.125,0.034,-0.0745,0.1865,0.1395,0.003
-0.7175,-0.359,0.358,0.5385,-0.538,-0.0005,-0.0805,-0.0655,0.197,-0.1275,0.0275,-0.0855,0.178,0.1375,0.0
-0.7075,-0.348,0.3595,0.5275,-0.5335,0.006,-0.0785,-0.056,0.2045,-0.121,0.034,-0.079,0.1835,0.1365,-0.003
-0.715,-0.3535,0.3615,0.534,-0.538,0.004,-0.0765,-0.0545,0.2095,-0.115,0.0405,-0.0745,0.1825,0.146,-0.0035
-0.709,-0.358,0.351,0.5335,-0.53,-0.0035,-0.0775,-0.05,0.213,-0.1135,0.0415,-0.076,0.179,0.143,-0.0105
-0.7055,-0.355,0.3505,0.53,-0.528,-0.002,-0.082,-0.052,0.2125,-0.1165,0.0395,-0.0795,0.1815,0.1445,-0.015
-0.7235,-0.358,0.3655,0.5405,-0.5445,0.004,-0.0835,-0.053,0.214,-0.115,0.04,-0.0795,0.182,0.1535,-0.008
-0.721,-0.3415,0.379,0.531,-0.55,0.019,-0.079,-0.049,0.224,-0.1055,0.05,-0.0705,0.187,0.16,-0.0035
-0.7065,-0.3265,0.3795,0.5165,-0.543,0.0265,-0.0805,-0.045,0.224,-0.1045,0.052,-0.069,0.189,0.171,-0.0045
-0.7095,-0.331,0.3785,0.5205,-0.544,0.0235,-0.0825,-0.042,0.2255,-0.105,0.052,-0.0695,0.1895,0.161,-0.005
-0.7195,-0.337,0.383,0.528,-0.551,0.023,-0.078,-0.045,0.231,-0.0995,0.056,-0.0685,0.1905,0.165,-0.0065
-0.7055,-0.3395,0.366,0.5225,-0.5355,0.0135,-0.084,-0.0455,0.227,-0.1025,0.0525,-0.072,0.1915,0.1685,-0.01
-0.706,-0.337,0.369,0.5215,-0.5375,0.016,-0.08,-0.038,0.2365,-0.0955,0.0595,-0.067,0.1945,0.158,-0.014
-0.7205,-0.3395,0.3815,0.53,-0.551,0.021,-0.0765,-0.0365,0.2425,-0.0905,0.064,-0.0625,0.1955,0.1685,-0.0185
-0.723,-0.3475,0.376,0.535,-0.5495,0.0145,-0.0835,-0.039,0.238,-0.096,0.0575,-0.069,0.197,0.176,-0.024
-0.7245,-0.358,0.3665,0.5415,-0.5455,0.004,-0.0845,-0.039,0.2385,-0.097,0.055,-0.0725,0.199,0.157,-0.0295
-0.7235,-0.361,0.362,0.542,-0.5425,0.0005,-0.0785,-0.034,0.2445,-0.091,0.0615,-0.068,0.1985,0.1425,-0.036
-0.7055,-0.3485,0.3575,0.527,-0.5315,0.0045,-0.0745,-0.0295,0.2515,-0.082,0.07,-0.062,0.204,0.155,-0.035
-0.69,-0.344,0.346,0.517,-0.518,0.001,-0.0755,-0.0265,0.2545,-0.077,0.0725,-0.059,0.2095,0.147,-0.035
-0.6895,-0.342,0.3475,0.5155,-0.5185,0.003,-0.0745,-0.02,0.261,-0.0705,0.0785,-0.0545,0.209,0.145,-0.044
-0.6925,-0.3375,0.3555,0.515,-0.524,0.009,-0.074,-0.014,0.2685,-0.0645,0.086,-0.0485,0.2155,0.1435,-0.043
-0.7085,-0.341,0.3675,0.5245,-0.538,0.013,-0.0715,-0.017,0.2675,-0.065,0.0835,-0.047,0.2175,0.154,-0.0365
-0.7015,-0.3325,0.369,0.517,-0.5355,0.018,-0.0695,-0.0185,0.269,-0.064,0.085,-0.046,0.219,0.176,-0.041
-0.6925,-0.323,0.369,0.508,-0.5305,0.023,-0.068,-0.01,0.277,-0.0575,0.09,-0.0435,0.221,0.159,-0.0405
-0.6955,-0.328,0.3675,0.512,-0.5315,0.0195,-0.0705,-0.0075,0.2805,-0.0545,0.0905,-0.043,0.2185,0.155,-0.0375
-0.6825,-0.3245,0.358,0.5035,-0.5205,0.017,-0.072,-0.0065,0.2815,-0.052,0.0935,-0.042,0.2205,0.1605,-0.0405
-0.683,-0.318,0.365,0.5005,-0.524,0.0235,-0.0695,-0.0065,0.2825,-0.054,0.0905,-0.046,0.2195,0.1685,-0.042
-0.6895,-0.318,0.372,0.5035,-0.531,0.027,-0.0695,-0.0055,0.2855,-0.052,0.091,-0.047,0.2205,0.1695,-0.0415
-0.6835,-0.3155,0.3685,0.4995,-0.526,0.0265,-0.0685,-0.0055,0.2865,-0.054,0.086,-0.0545,0.2165,0.1645,-0.0415
-0.6865,-0.3145,0.372,0.5005,-0.529,0.0285,-0.0675,-0.004,0.286,-0.061,0.078,-0.0645,0.208,0.164,-0.0425
-0.677,-0.3055,0.372,0.491,-0.5245,0.0335,-0.0625,0.006,0.2935,-0.0525,0.0845,-0.06,0.211,0.17,-0.0465
-0.6695,-0.3035,0.366,0.4865,-0.518,0.0315,-0.062,0.0095,0.298,-0.0475,0.0885,-0.0565,0.2175,0.181,-0.0535
-0.691,-0.3145,0.3765,0.5025,-0.5335,0.031,-0.0575,0.0115,0.302,-0.0435,0.0935,-0.0545,0.2185,0.169,-0.054
-0.6915,-0.3115,0.38,0.5015,-0.5355,0.034,-0.0565,0.019,0.3105,-0.035,0.1005,-0.0475,0.221,0.1675,-0.054
-0.6815,-0.3025,0.379,0.492,-0.5305,0.038,-0.0555,0.024,0.3155,-0.0285,0.1065,-0.041,0.2245,0.17,-0.057
-0.6785,-0.2965,0.3815,0.4875,-0.53,0.0425,-0.0485,0.0235,0.3185,-0.026,0.106,-0.0435,0.222,0.1775,-0.0515
-0.6695,-0.302,0.3675,0.486,-0.5185,0.033,-0.052,0.0215,0.3185,-0.03,0.1005,-0.05,0.2195,0.1755,-0.0515
-0.682,-0.312,0.37,0.497,-0.526,0.029,-0.05,0.027,0.3235,-0.0255,0.1035,-0.0495,0.218,0.164,-0.0565
-0.7005,-0.316,0.3845,0.508,-0.542,0.0345,-0.0425,0.0375,0.3295,-0.022,0.1065,-0.0495,0.215,0.1675,-0.0585
-0.696,-0.316,0.38,0.506,-0.538,0.032,-0.0385,0.04,0.333,-0.024,0.1035,-0.0505,0.217,0.158,-0.064
-0.6985,-0.3165,0.382,0.5075,-0.5405,0.033,-0.0415,0.0415,0.3385,-0.022,0.105,-0.0495,0.222,0.152,-0.068
-0.7095,-0.3165,0.3935,0.513,-0.5515,0.0385,-0.0385,0.0485,0.3445,-0.015,0.111,-0.0445,0.226,0.157,-0.0705
-0.7045,-0.3155,0.3895,0.51,-0.547,0.037,-0.0335,0.051,0.3495,-0.0095,0.114,-0.0395,0.233,0.162,-0.072
-0.6985,-0.3225,0.376,0.5105,-0.537,0.027,-0.039,0.052,0.347,-0.0115,0.1125,-0.0415,0.238,0.159,-0.07
-0.699,-0.328,0.371,0.514,-0.535,0.021,-0.0365,0.0565,0.353,-0.007,0.115,-0.039,0.2405,0.157,-0.0685
-0.692,-0.325,0.367,0.5085,-0.5295,0.021,-0.0365,0.059,0.359,-0.0035,0.1175,-0.0375,0.246,0.156,-0.0735
-0.684,-0.3165,0.3675,0.5,-0.5255,0.0255,-0.04,0.0585,0.356,-0.006,0.117,-0.0395,0.249,0.1565,-0.08
-0.6885,-0.316,0.373,0.502,-0.531,0.0285,-0.0405,0.057,0.3575,-0.0085,0.1155,-0.0415,0.2485,0.1655,-0.0775
-0.693,-0.3205,0.3725,0.5065,-0.5325,0.026,-0.0445,0.055,0.355,-0.0105,0.1115,-0.0455,0.249,0.1665,-0.0775
-0.7025,-0.3265,0.376,0.5145,-0.539,0.0245,-0.044,0.059,0.3595,-0.008,0.1125,-0.043,0.25,0.1685,-0.0795
-0.7035,-0.333,0.3705,0.518,-0.537,0.019,-0.043,0.062,0.364,-0.005,0.1145,-0.042,0.2505,0.162,-0.083
-0.693,-0.3305,0.363,0.512,-0.528,0.016,-0.047,0.061,0.3635,-0.004,0.1115,-0.047,0.2495,0.157,-0.0835
-0.6885,-0.329,0.3595,0.509,-0.524,0.015,-0.0495,0.06,0.3655,-0.0075,0.109,-0.0505,0.247,0.1635,-0.0825
-0.6795,-0.322,0.357,0.501,-0.5185,0.0175,-0.053,0.0605,0.366,-0.008,0.108,-0.051,0.248,0.171,-0.084
-0.6885,-0.314,0.3745,0.5015,-0.5315,0.0305,-0.0505,0.0655,0.373,-0.0015,0.1115,-0.0485,0.247,0.1765,-0.0855
-0.6975,-0.3175,0.38,0.5075,-0.539,0.0315,-0.046,0.0685,0.376,0.0025,0.1165,-0.0465,0.248,0.181,-0.084
-0.686,-0.321,0.365,0.5035,-0.5255,0.0225,-0.0445,0.07,0.376,0.003,0.1165,-0.049,0.248,0.176,-0.0785
-0.674,-0.3235,0.3505,0.4985,-0.512,0.0135,-0.043,0.0725,0.3795,0.004,0.114,-0.0525,0.245,0.153,-0.0855
-0.682,-0.325,0.357,0.5035,-0.5195,0.016,-0.0435,0.075,0.3835,0.01,0.119,-0.0495,0.2465,0.1515,-0.095
-0.7,-0.3275,0.3725,0.514,-0.536,0.0225,-0.038,0.08,0.3885,0.0125,0.1225,-0.0495,0.2425,0.1595,-0.098
-0.6965,-0.3225,0.374,0.5095,-0.5355,0.0255,-0.0375,0.083,0.391,0.0125,0.12,-0.053,0.239,0.157,-0.102
-0.6955,-0.3145,0.3815,0.505,-0.5385,0.0335,-0.034,0.0925,0.4,0.017,0.1235,-0.0525,0.24,0.1555,-0.107
-0.6965,-0.317,0.3795,0.507,-0.538,0.031,-0.035,0.089,0.3935,0.0085,0.1145,-0.061,0.2345,0.16,-0.101
-0.6845,-0.3185,0.366,0.5015,-0.5255,0.024,-0.042,0.075,0.3845,0.001,0.1065,-0.0685,0.2325,0.171,-0.0895
-0.685,-0.3175,0.368,0.5015,-0.5265,0.0255,-0.0385,0.0795,0.391,0.0055,0.111,-0.066,0.234,0.1695,-0.0885
-0.6885,-0.3125,0.3765,0.5005,-0.5325,0.032,-0.038,0.082,0.396,0.008,0.113,-0.064,0.2335,0.167,-0.093
-0.7065,-0.313,0.3935,0.51,-0.55,0.04,-0.0315,0.086,0.4005,0.011,0.117,-0.062,0.231,0.1665,-0.098
-0.7255,-0.3195,0.406,0.5225,-0.5655,0.0435,-0.029,0.0885,0.4035,0.014,0.118,-0.064,0.2295,0.167,-0.102
-0.7075,-0.3045,0.403,0.506,-0.555,0.0495,-0.034,0.089,0.4065,0.016,0.119,-0.0625,0.234,0.173,-0.1005
-0.7,-0.3,0.4,0.5,-0.55,0.05,-0.035,0.088,0.406,0.0155,0.1175,-0.0645,0.2335,0.1915,-0.0955
-0.6965,-0.307,0.3895,0.502,-0.543,0.0415,-0.0355,0.087,0.4065,0.0165,0.1185,-0.0635,0.2335,0.2005,-0.0995
-0.69,-0.309,0.381,0.4995,-0.5355,0.036,-0.0355,0.0915,0.4115,0.021,0.1245,-0.0585,0.238,0.1925,-0.105
-0.6775,-0.2995,0.378,0.4885,-0.5275,0.039,-0.0335,0.0955,0.417,0.027,0.13,-0.0565,0.2415,0.1905,-0.1085
-0.667,-0.282,0.3855,0.4745,-0.5265,0.0515,-0.03,0.0995,0.4195,0.03,0.134,-0.053,0.2395,0.1855,-0.11
-0.6735,-0.2845,0.3895,0.479,-0.5315,0.0525,-0.0315,0.101,0.424,0.034,0.1365,-0.0505,0.242,0.1985,-0.111
-0.6665,-0.2855,0.381,0.476,-0.5235,0.048,-0.033,0.099,0.425,0.0345,0.137,-0.049,0.246,0.2105,-0.113
-0.6745,-0.287,0.3875,0.481,-0.531,0.0505,-0.031,0.0955,0.421,0.0305,0.1325,-0.052,0.2375,0.2005,-0.1115
-0.6785,-0.2895,0.389,0.484,-0.534,0.05,-0.0275,0.099,0.4245,0.0325,0.1335,-0.0535,0.236,0.201,-0.114
-0.6775,-0.288,0.3895,0.4825,-0.5335,0.0505,-0.025,0.105,0.4275,0.035,0.1335,-0.053,0.235,0.2005,-0.116
-0.6905,-0.291,0.3995,0.491,-0.545,0.054,-0.025,0.108,0.431,0.0385,0.137,-0.0505,0.233,0.193,-0.1185
-0.6945,-0.2895,0.4055,0.492,-0.55,0.058,-0.025,0.1075,0.4325,0.0435,0.1425,-0.0495,0.234,0.196,-0.122
-0.6965,-0.2865,0.41,0.4915,-0.553,0.062,-0.023,0.112,0.4315,0.041,0.137,-0.052,0.232,0.2005,-0.119
-0.7,-0.287,0.413,0.4935,-0.5565,0.063,-0.018,0.116,0.438,0.0415,0.137,-0.0525,0.231,0.197,-0.118
-0.7025,-0.29,0.4125,0.496,-0.5575,0.061,-0.022,0.1125,0.439,0.042,0.137,-0.055,0.2315,0.1975,-0.1215
-0.687,-0.288,0.399,0.4875,-0.543,0.0555,-0.0265,0.1155,0.436,0.0405,0.1355,-0.056,0.235,0.188,-0.1245
-0.6795,-0.279,0.401,0.4795,-0.54,0.061,-0.0235,0.1215,0.442,0.0415,0.1365,-0.056,0.236,0.1915,-0.1245
-0.6925,-0.2795,0.4135,0.486,-0.553,0.067,-0.0215,0.1185,0.44,0.039,0.1325,-0.0625,0.2335,0.2065,-0.124
-0.712,-0.292,0.42,0.502,-0.566,0.064,-0.02,0.115,0.434,0.034,0.1265,-0.069,0.231,0.204,-0.1245
-0.719,-0.293,0.426,0.506,-0.5725,0.0665,-0.019,0.117,0.4385,0.0345,0.1265,-0.069,0.2305,0.2115,-0.128
-0.707,-0.288,0.419,0.497,-0.563,0.0655,-0.023,0.118,0.44,0.0345,0.127,-0.069,0.2305,0.2075,-0.131
-0.7025,-0.2865,0.416,0.4945,-0.559,0.0645,-0.019,0.1225,0.441,0.0335,0.126,-0.0695,0.2305,0.1925,-0.129
-0.7085,-0.288,0.4205,0.498,-0.5645,0.0665,-0.0115,0.124,0.442,0.035,0.125,-0.07,0.2265,0.204,-0.132
-0.702,-0.285,0.417,0.4935,-0.5595,0.066,-0.015,0.123,0.442,0.036,0.1275,-0.066,0.228,0.2055,-0.1335
-0.693,-0.2765,0.4165,0.4845,-0.555,0.0705,-0.013,0.129,0.4475,0.0405,0.133,-0.063,0.231,0.198,-0.135
-0.7,-0.2765,0.4235,0.488,-0.5615,0.0735,-0.0135,0.1305,0.447,0.039,0.1275,-0.071,0.2265,0.2035,-0.1365
-0.7005,-0.2785,0.422,0.489,-0.561,0.072,-0.0165,0.1325,0.4465,0.038,0.126,-0.071,0.227,0.198,-0.1335
-0.6975,-0.2835,0.414,0.4905,-0.556,0.0655,-0.014,0.1315,0.4475,0.039,0.1275,-0.0685,0.2265,0.1975,-0.1375
-0.6955,-0.2885,0.407,0.492,-0.551,0.059,-0.0155,0.1305,0.444,0.0365,0.1215,-0.072,0.2265,0.198,-0.14
-0.6955,-0.285,0.4105,0.4905,-0.553,0.0625,-0.014,0.1325,0.4465,0.037,0.124,-0.07,0.2275,0.1975,-0.141
-0.693,-0.2815,0.4115,0.487,-0.5525,0.065,-0.0095,0.1385,0.451,0.041,0.13,-0.0645,0.2295,0.205,-0.1445
-0.7005,-0.2875,0.4125,0.494,-0.5565,0.0625,-0.0155,0.1365,0.4485,0.0385,0.1285,-0.0655,0.232,0.213,-0.144
-0.71,-0.2915,0.4185,0.5005,-0.564,0.0635,-0.0175,0.134,0.446,0.035,0.1265,-0.0665,0.23,0.212,-0.1425
-0.7045,-0.29,0.4145,0.497,-0.5595,0.062,-0.0145,0.1385,0.447,0.0365,0.129,-0.064,0.23,0.208,-0.1425
-0.7005,-0.295,0.405,0.498,-0.553,0.055,-0.0195,0.1365,0.4465,0.035,0.127,-0.064,0.2325,0.2055,-0.1445
-0.6935,-0.2955,0.398,0.4945,-0.546,0.051,-0.021,0.1385,0.4455,0.0315,0.125,-0.0655,0.234,0.189,-0.144
-0.6945,-0.2855,0.409,0.49,-0.552,0.062,-0.0225,0.134,0.442,0.0295,0.123,-0.068,0.2315,0.202,-0.1445
-0.7105,-0.284,0.4265,0.4975,-0.5685,0.071,-0.0245,0.124,0.431,0.0205,0.1165,-0.072,0.226,0.2185,-0.1435
-0.7215,-0.2875,0.434,0.504,-0.5775,0.0735,-0.026,0.1185,0.4215,0.011,0.108,-0.076,0.2215,0.2075,-0.138
-0.7245,-0.291,0.433,0.508,-0.579,0.071,-0.026,0.12,0.424,0.0125,0.11,-0.075,0.2205,0.203,-0.1355
-0.7225,-0.2955,0.4265,0.509,-0.5745,0.0655,-0.0265,0.12,0.4235,0.013,0.1125,-0.0725,0.221,0.199,-0.1345
-0.7225,-0.3,0.422,0.511,-0.572,0.061,-0.031,0.1105,0.415,0.005,0.106,-0.076,0.2215,0.195,-0.1385
-0.7235,-0.3015,0.422,0.5125,-0.573,0.06,-0.0395,0.0965,0.4015,-0.0095,0.0955,-0.085,0.2165,0.1975,-0.1385
-0.706,-0.2815,0.424,0.494,-0.565,0.0715,-0.0385,0.0975,0.398,-0.013,0.094,-0.0845,0.214,0.199,-0.1355
-0.7005,-0.2805,0.42,0.4905,-0.5605,0.07,-0.0365,0.099,0.3935,-0.014,0.0935,-0.081,0.2135,0.1995,-0.129
-0.7185,-0.293,0.425,0.506,-0.5715,0.066,-0.04,0.0895,0.384,-0.022,0.0855,-0.086,0.21,0.2065,-0.115
-0.7225,-0.2935,0.4285,0.508,-0.5755,0.0675,-0.036,0.088,0.3835,-0.0235,0.0865,-0.085,0.206,0.21,-0.111
-0.721,-0.2905,0.4305,0.5055,-0.5755,0.07,-0.0305,0.0885,0.383,-0.0235,0.087,-0.084,0.2015,0.207,-0.113
-0.7225,-0.2865,0.436,0.504,-0.579,0.075,-0.028,0.086,0.378,-0.0265,0.0855,-0.0825,0.1995,0.2035,-0.114
-0.7235,-0.295,0.4285,0.509,-0.576,0.0665,-0.027,0.0875,0.377,-0.025,0.089,-0.076,0.201,0.199,-0.117
-0.7155,-0.2985,0.417,0.5075,-0.5665,0.059,-0.0255,0.0865,0.373,-0.029,0.085,-0.077,0.2015,0.1955,-0.1155
-0.709,-0.294,0.415,0.5015,-0.562,0.0605,-0.0315,0.0705,0.357,-0.0425,0.0745,-0.0815,0.1995,0.2045,-0.1055
-0.707,-0.2915,0.4155,0.499,-0.561,0.062,-0.0345,0.0675,0.353,-0.0445,0.074,-0.0795,0.2025,0.209,-0.0995
-0.707,-0.2995,0.408,0.5035,-0.5575,0.054,-0.036,0.069,0.3495,-0.048,0.0725,-0.08,0.202,0.211,-0.0965
-0.7215,-0.3085,0.4135,0.515,-0.5675,0.0525,-0.0335,0.0575,0.3435,-0.0525,0.069,-0.084,0.194,0.207,-0.095
-0.727,-0.308,0.419,0.5175,-0.573,0.056,-0.035,0.053,0.3355,-0.0595,0.0655,-0.0855,0.193,0.1935,-0.0915
-0.7275,-0.3125,0.415,0.52,-0.5715,0.0515,-0.046,0.046,0.32,-0.0755,0.054,-0.0885,0.1935,0.1945,-0.086
-0.7365,-0.323,0.414,0.53,-0.575,0.0455,-0.0455,0.0385,0.3115,-0.0825,0.0465,-0.094,0.19,0.1915,-0.085
-0.7505,-0.333,0.417,0.542,-0.5835,0.042,-0.041,0.038,0.3115,-0.08,0.05,-0.091,0.19,0.194,-0.0845
-0.73,-0.32,0.41,0.525,-0.57,0.045,-0.042,0.0395,0.3125,-0.0785,0.053,-0.084,0.1935,0.184,-0.0795
-0.7155,-0.3205,0.3955,0.518,-0.5555,0.0375,-0.0535,0.028,0.298,-0.091,0.041,-0.093,0.196,0.1765,-0.076
-0.7345,-0.3355,0.399,0.535,-0.567,0.032,-0.0565,0.024,0.2915,-0.0965,0.034,-0.0975,0.195,0.1935,-0.076
-0.709,-0.314,0.395,0.5115,-0.552,0.0405,-0.049,0.03,0.2945,-0.0935,0.039,-0.0885,0.1925,0.1785,-0.07
-0.693,-0.305,0.3885,0.499,-0.5405,0.042,-0.046,0.0235,0.2885,-0.098,0.038,-0.0885,0.188,0.1865,-0.0685
-0.716,-0.3145,0.4015,0.5155,-0.559,0.0435,-0.041,0.024,0.2865,-0.1,0.038,-0.082,0.1895,0.202,-0.073
-0.722,-0.329,0.3925,0.5255,-0.557,0.032,-0.0495,0.0155,0.2745,-0.1125,0.0255,-0.093,0.1865,0.188,-0.0705
-0.72,-0.342,0.378,0.531,-0.549,0.018,-0.0555,0.0055,0.2635,-0.122,0.014,-0.1095,0.179,0.168,-0.0655
-0.7315,-0.345,0.386,0.538,-0.559,0.0205,-0.0535,0.0065,0.2645,-0.118,0.018,-0.102,0.178,0.15,-0.0675
-0.718,-0.33,0.3885,0.524,-0.553,0.0295,-0.0485,0.0135,0.2695,-0.112,0.0235,-0.092,0.1785,0.174,-0.067
-0.718,-0.323,0.395,0.5205,-0.5565,0.036,-0.0385,0.0205,0.2715,-0.112,0.0255,-0.088,0.177,0.18,-0.0555
-0.727,-0.3425,0.384,0.5345,-0.5555,0.021,-0.0525,0.0035,0.2555,-0.1275,0.0115,-0.0995,0.172,0.1635,-0.0505
-0.731,-0.3445,0.387,0.5375,-0.559,0.0215,-0.058,-0.0045,0.2495,-0.1305,0.009,-0.099,0.174,0.1585,-0.05
-0.7625,-0.3425,0.42,0.5525,-0.591,0.0385,-0.0455,-0.001,0.2485,-0.128,0.013,-0.0945,0.1705,0.1545,-0.0455
-0.7655,-0.339,0.4265,0.552,-0.596,0.0435,-0.0385,0.0055,0.252,-0.1215,0.0195,-0.087,0.176,0.161,-0.0435
-0.7435,-0.344,0.3995,0.544,-0.5715,0.028,-0.04,-0.0025,0.2425,-0.1305,0.0115,-0.092,0.1785,0.1535,-0.039
-0.703,-0.3485,0.355,0.5255,-0.529,0.0035,-0.053,-0.022,0.2195,-0.1525,-0.0095,-0.1115,0.162,0.147,-0.035
-0.6925,-0.343,0.3495,0.518,-0.521,0.003,-0.058,-0.0265,0.215,-0.157,-0.0135,-0.1135,0.162,0.1565,-0.0335
-0.715,-0.349,0.366,0.532,-0.5405,0.0085,-0.06,-0.0345,0.2075,-0.164,-0.021,-0.1175,0.1625,0.154,-0.031
-0.7125,-0.3485,0.364,0.5305,-0.5385,0.0075,-0.062,-0.0395,0.203,-0.1655,-0.0215,-0.115,0.1635,0.1575,-0.0265
-0.7115,-0.348,0.3635,0.53,-0.5375,0.008,-0.0615,-0.039,0.203,-0.1645,-0.019,-0.1135,0.165,0.1615,-0.024
-0.71,-0.35,0.36,0.53,-0.535,0.005,-0.0645,-0.04,0.2005,-0.166,-0.021,-0.115,0.166,0.161,-0.028
-0.7085,-0.357,0.3515,0.533,-0.53,-0.003,-0.063,-0.0405,0.1975,-0.169,-0.021,-0.1115,0.1665,0.157,-0.022
-0.7125,-0.3605,0.3515,0.5365,-0.532,-0.0045,-0.0625,-0.0425,0.192,-0.171,-0.022,-0.1105,0.165,0.1515,-0.0125
-0.718,-0.3585,0.3595,0.5385,-0.539,0.0005,-0.066,-0.043,0.191,-0.1695,-0.02,-0.108,0.168,0.1475,-0.0185
-0.7175,-0.3555,0.3615,0.5365,-0.5395,0.003,-0.062,-0.041,0.1935,-0.1695,-0.0205,-0.1075,0.1665,0.1445,-0.019
-0.713,-0.3565,0.357,0.535,-0.535,0.0005,-0.0625,-0.045,0.19,-0.171,-0.0245,-0.1085,0.1665,0.1445,-0.015
-0.7185,-0.367,0.3515,0.543,-0.535,-0.008,-0.065,-0.049,0.1855,-0.1745,-0.0275,-0.1105,0.165,0.142,-0.0135
-0.72,-0.376,0.344,0.5475,-0.532,-0.016,-0.0635,-0.05,0.1835,-0.176,-0.0285,-0.11,0.1655,0.1405,-0.0125
-0.722,-0.379,0.343,0.5505,-0.5325,-0.018,-0.065,-0.052,0.18,-0.1785,-0.0305,-0.1105,0.1665,0.1355,-0.016
-0.722,-0.384,0.3375,0.553,-0.53,-0.023,-0.07,-0.057,0.1745,-0.1815,-0.0345,-0.115,0.1635,0.134,-0.014
-0.7215,-0.3875,0.3335,0.5545,-0.5275,-0.027,-0.0735,-0.0615,0.1705,-0.1845,-0.0365,-0.117,0.164,0.1345,-0.01
-0.72,-0.384,0.336,0.5515,-0.528,-0.024,-0.076,-0.0635,0.1675,-0.1895,-0.039,-0.1155,0.1665,0.1375,-0.01
-0.7105,-0.3835,0.327,0.547,-0.5185,-0.0285,-0.0795,-0.0685,0.1645,-0.1915,-0.041,-0.118,0.167,0.1395,-0.012
-0.7065,-0.3835,0.323,0.545,-0.5145,-0.03,-0.0805,-0.0685,0.1625,-0.194,-0.0425,-0.12,0.167,0.139,-0.01
-0.7105,-0.3835,0.3275,0.547,-0.519,-0.028,-0.0815,-0.0675,0.162,-0.191,-0.0395,-0.1165,0.168,0.137,-0.0095
-0.7135,-0.387,0.327,0.5505,-0.52,-0.03,-0.081,-0.0675,0.163,-0.1885,-0.037,-0.115,0.1665,0.1355,-0.0085
-0.713,-0.387,0.326,0.55,-0.5195,-0.0305,-0.083,-0.067,0.162,-0.192,-0.039,-0.1135,0.1685,0.136,-0.0035
-0.712,-0.3815,0.3305,0.5465,-0.5215,-0.0255,-0.086,-0.0695,0.1615,-0.1895,-0.0395,-0.112,0.1715,0.1365,-0.004
-0.714,-0.378,0.3355,0.546,-0.525,-0.021,-0.09,-0.0715,0.159,-0.1935,-0.0405,-0.1135,0.174,0.146,-0.003
-0.7105,-0.381,0.33,0.5455,-0.52,-0.0255,-0.0955,-0.074,0.156,-0.1975,-0.045,-0.116,0.175,0.149,-0.0055
-0.7085,-0.381,0.328,0.545,-0.518,-0.0265,-0.093,-0.073,0.155,-0.197,-0.045,-0.1165,0.174,0.1495,-0.0085
-0.7145,-0.3865,0.3285,0.5505,-0.5215,-0.029,-0.092,-0.0695,0.1555,-0.198,-0.0435,-0.1145,0.173,0.1515,-0.0065
-0.7175,-0.391,0.3265,0.554,-0.522,-0.032,-0.0925,-0.0695,0.1545,-0.198,-0.0445,-0.1145,0.173,0.1475,-0.0055
-0.7105,-0.3875,0.3235,0.549,-0.517,-0.032,-0.092,-0.071,0.1535,-0.201,-0.0445,-0.1145,0.1755,0.147,-0.0055
-0.715,-0.387,0.3275,0.551,-0.5215,-0.0295,-0.0925,-0.0705,0.153,-0.203,-0.0475,-0.117,0.174,0.144,-0.006
-0.7245,-0.387,0.3375,0.5555,-0.531,-0.025,-0.0915,-0.071,0.1505,-0.2045,-0.051,-0.1195,0.171,0.1435,-0.0065
-0.7305,-0.394,0.336,0.5625,-0.5335,-0.029,-0.0895,-0.0715,0.151,-0.2055,-0.0505,-0.1185,0.1715,0.137,-0.0035
-0.74,-0.405,0.335,0.5725,-0.5375,-0.035,-0.086,-0.0695,0.1535,-0.2025,-0.049,-0.1165,0.1695,0.126,-0.002
-0.7265,-0.407,0.3195,0.5665,-0.523,-0.044,-0.087,-0.0695,0.151,-0.2045,-0.051,-0.118,0.1705,0.1255,-0.0025
-0.712,-0.4085,0.3035,0.5605,-0.508,-0.0525,-0.0925,-0.071,0.1455,-0.213,-0.058,-0.124,0.17,0.1245,-0.0025
-0.7215,-0.405,0.3165,0.5635,-0.519,-0.0445,-0.0915,-0.0685,0.1485,-0.211,-0.0565,-0.123,0.17,0.1285,-0.0045
-0.722,-0.4,0.322,0.561,-0.522,-0.0395,-0.0905,-0.0695,0.1495,-0.2095,-0.055,-0.1215,0.172,0.128,-0.0055
-0.7205,-0.407,0.3135,0.5635,-0.517,-0.0465,-0.0905,-0.071,0.146,-0.2135,-0.059,-0.124,0.1715,0.127,-0.0055
-0.726,-0.411,0.315,0.5685,-0.5205,-0.048,-0.09,-0.069,0.149,-0.2105,-0.0545,-0.12,0.174,0.1305,-0.006
-0.726,-0.4125,0.3135,0.5695,-0.52,-0.0495,-0.089,-0.0635,0.1465,-0.2095,-0.054,-0.1195,0.1755,0.127,-0.0055
-0.729,-0.4175,0.3115,0.5735,-0.5205,-0.053,-0.0865,-0.0635,0.1485,-0.2105,-0.056,-0.123,0.173,0.122,-0.0085
-0.7225,-0.4185,0.304,0.5705,-0.5135,-0.057,-0.0875,-0.067,0.148,-0.215,-0.0595,-0.124,0.1745,0.1215,-0.0075
-0.722,-0.4195,0.3025,0.571,-0.512,-0.0585,-0.0865,-0.064,0.144,-0.215,-0.0605,-0.124,0.1755,0.1295,-0.0065
-0.731,-0.422,0.3095,0.5765,-0.5205,-0.056,-0.086,-0.0685,0.145,-0.2145,-0.063,-0.126,0.1745,0.1305,-0.008
-0.7315,-0.4225,0.309,0.577,-0.5205,-0.057,-0.086,-0.068,0.1465,-0.2125,-0.061,-0.126,0.1765,0.126,-0.009
-0.7285,-0.4245,0.304,0.5765,-0.516,-0.0605,-0.086,-0.0695,0.147,-0.2075,-0.0555,-0.1225,0.1815,0.1295,-0.009
-0.721,-0.429,0.2915,0.575,-0.5065,-0.069,-0.089,-0.075,0.1395,-0.217,-0.0645,-0.126,0.1805,0.1145,-0.0065
-0.724,-0.4335,0.2905,0.579,-0.5075,-0.0715,-0.091,-0.0765,0.137,-0.2265,-0.07,-0.1315,0.1785,0.1075,-0.0045
-0.726,-0.433,0.293,0.5795,-0.5095,-0.07,-0.091,-0.0785,0.1365,-0.226,-0.073,-0.134,0.1785,0.115,-0.002
-0.721,-0.432,0.289,0.5765,-0.505,-0.0715,-0.09,-0.079,0.1345,-0.225,-0.073,-0.1325,0.1795,0.092,-0.0025
-0.728,-0.439,0.289,0.5835,-0.5085,-0.075,-0.0865,-0.0795,0.135,-0.222,-0.0715,-0.1305,0.183,0.0925,-0.003
-0.736,-0.446,0.29,0.591,-0.513,-0.078,-0.0815,-0.078,0.1375,-0.2195,-0.069,-0.127,0.1845,0.1055,-0.0005
-0.7305,-0.4435,0.287,0.587,-0.509,-0.0785,-0.082,-0.075,0.139,-0.2185,-0.068,-0.126,0.1845,0.102,-0.002
-0.716,-0.4385,0.2775,0.577,-0.497,-0.0805,-0.0865,-0.069,0.1405,-0.2155,-0.067,-0.125,0.1845,0.0955,-0.003
-0.7215,-0.445,0.2765,0.5835,-0.499,-0.0845,-0.086,-0.0685,0.1415,-0.2165,-0.068,-0.126,0.185,0.0855,-0.004
-0.7385,-0.458,0.2805,0.598,-0.5095,-0.0885,-0.0815,-0.073,0.1355,-0.2235,-0.075,-0.132,0.182,0.098,-0.0085
-0.7415,-0.456,0.2855,0.5985,-0.5135,-0.0855,-0.0745,-0.0725,0.1365,-0.2215,-0.0735,-0.1315,0.1815,0.1005,-0.015
-0.721,-0.445,0.2765,0.583,-0.4985,-0.084,-0.078,-0.0715,0.1375,-0.22,-0.072,-0.13,0.186,0.08,-0.011
-0.7095,-0.446,0.263,0.5775,-0.4865,-0.0915,-0.086,-0.0755,0.1315,-0.2275,-0.0785,-0.135,0.186,0.0705,-0.005
-0.73,-0.459,0.2705,0.5945,-0.5,-0.0945,-0.0805,-0.0785,0.132,-0.227,-0.078,-0.135,0.185,0.0845,-0.006
-0.7105,-0.45,0.2605,0.5805,-0.4855,-0.095,-0.08,-0.073,0.136,-0.223,-0.0725,-0.132,0.189,0.071,-0.0065
-0.701,-0.435,0.266,0.568,-0.4835,-0.0845,-0.073,-0.066,0.1405,-0.219,-0.071,-0.13,0.189,0.0655,-0.0115
-0.726,-0.432,0.294,0.579,-0.51,-0.069,-0.0585,-0.0585,0.1465,-0.2155,-0.0645,-0.128,0.1855,0.1,-0.011
-0.731,-0.4265,0.304,0.579,-0.5175,-0.0615,-0.0595,-0.0575,0.1485,-0.215,-0.063,-0.125,0.186,0.1175,-0.006
-0.722,-0.4255,0.2965,0.574,-0.509,-0.0645,-0.061,-0.0635,0.1435,-0.219,-0.0675,-0.127,0.1895,0.1165,-0.0025
-0.7085,-0.4255,0.283,0.567,-0.496,-0.0715,-0.065,-0.0665,0.1415,-0.221,-0.0665,-0.13,0.1915,0.101,0.0035
-0.71,-0.4225,0.287,0.5665,-0.4985,-0.068,-0.065,-0.0625,0.1455,-0.213,-0.0625,-0.124,0.1915,0.098,0.0
-0.71,-0.4215,0.289,0.566,-0.4995,-0.066,-0.0575,-0.057,0.149,-0.2115,-0.062,-0.1225,0.1925,0.0955,-0.0045
-0.71,-0.422,0.288,0.5665,-0.499,-0.067,-0.054,-0.0565,0.149,-0.212,-0.0625,-0.122,0.193,0.0855,-0.006
-0.713,-0.421,0.292,0.567,-0.5025,-0.0645,-0.0505,-0.054,0.151,-0.2065,-0.057,-0.118,0.194,0.0825,-0.0105
-0.707,-0.42,0.287,0.5635,-0.497,-0.0665,-0.0515,-0.052,0.154,-0.206,-0.0565,-0.117,0.1965,0.0765,-0.0125
-0.7,-0.4245,0.275,0.562,-0.4875,-0.0745,-0.052,-0.054,0.154,-0.207,-0.057,-0.117,0.1975,0.0785,-0.012
-0.699,-0.4285,0.2705,0.5635,-0.4845,-0.079,-0.0505,-0.0555,0.152,-0.208,-0.055,-0.115,0.1985,0.075,-0.0105
-0.696,-0.429,0.267,0.5625,-0.4815,-0.081,-0.0515,-0.0565,0.1505,-0.2085,-0.058,-0.117,0.1995,0.0705,-0.0095
-0.6855,-0.4315,0.254,0.5585,-0.47,-0.0885,-0.054,-0.06,0.148,-0.2115,-0.061,-0.121,0.1985,0.0775,-0.0095
-0.6815,-0.432,0.249,0.5565,-0.465,-0.0915,-0.055,-0.062,0.1475,-0.2115,-0.0615,-0.12,0.1995,0.0785,-0.008
-0.6865,-0.426,0.2605,0.5565,-0.4735,-0.083,-0.0545,-0.0605,0.1505,-0.2085,-0.059,-0.1175,0.2,0.0815,-0.0095
-0.695,-0.4255,0.269,0.5605,-0.482,-0.0785,-0.052,-0.061,0.1505,-0.2085,-0.057,-0.1165,0.201,0.083,-0.0105
-0.6945,-0.428,0.2665,0.561,-0.4805,-0.0805,-0.0525,-0.06,0.1495,-0.2085,-0.0585,-0.1165,0.2005,0.08,-0.008
-0.69,-0.428,0.262,0.559,-0.476,-0.083,-0.054,-0.0605,0.149,-0.21,-0.0585,-0.1175,0.2,0.0815,-0.0065
-0.6895,-0.4315,0.2585,0.5605,-0.474,-0.0865,-0.0525,-0.0605,0.1485,-0.211,-0.059,-0.117,0.2,0.0815,-0.006
-0.6925,-0.429,0.2635,0.561,-0.478,-0.083,-0.0525,-0.06,0.149,-0.211,-0.059,-0.1165,0.202,0.0855,-0.0095
-0.6925,-0.423,0.2695,0.558,-0.481,-0.077,-0.0545,-0.062,0.1475,-0.212,-0.06,-0.118,0.2025,0.0885,-0.01
-0.69,-0.4215,0.2685,0.5555,-0.479,-0.0765,-0.0545,-0.063,0.1465,-0.213,-0.062,-0.119,0.2015,0.09,-0.0075
-0.697,-0.4235,0.2735,0.56,-0.485,-0.075,-0.0525,-0.061,0.1485,-0.2105,-0.06,-0.1165,0.203,0.0905,-0.0095
-0.7,-0.4255,0.274,0.5625,-0.487,-0.0755,-0.0545,-0.0615,0.1475,-0.21,-0.0585,-0.117,0.203,0.0895,-0.01
-0.7,-0.428,0.2715,0.564,-0.4855,-0.078,-0.0555,-0.064,0.147,-0.212,-0.0585,-0.1165,0.205,0.0905,-0.011
-0.6925,-0.4295,0.2635,0.561,-0.478,-0.083,-0.057,-0.064,0.1455,-0.2125,-0.0605,-0.1175,0.2065,0.087,-0.0125
-0.6765,-0.426,0.2505,0.551,-0.4635,-0.0875,-0.058,-0.0635,0.144,-0.2125,-0.0595,-0.1195,0.2075,0.088,-0.0135
-0.676,-0.423,0.253,0.5495,-0.4645,-0.0855,-0.0565,-0.064,0.146,-0.2115,-0.058,-0.1175,0.2095,0.0925,-0.0145
-0.6915,-0.432,0.2595,0.562,-0.4755,-0.0865,-0.059,-0.0645,0.1445,-0.2135,-0.059,-0.1175,0.2105,0.09,-0.014
-0.698,-0.4365,0.2615,0.567,-0.4795,-0.0875,-0.0605,-0.064,0.144,-0.2135,-0.0575,-0.117,0.211,0.094,-0.014
-0.6975,-0.439,0.2585,0.568,-0.478,-0.09,-0.059,-0.063,0.1455,-0.2125,-0.0585,-0.1175,0.2095,0.0885,-0.017
-0.697,-0.4425,0.2545,0.5695,-0.4755,-0.094,-0.0585,-0.063,0.1465,-0.212,-0.057,-0.1165,0.2105,0.083,-0.023
-0.693,-0.4395,0.2535,0.5665,-0.473,-0.093,-0.0555,-0.0625,0.1465,-0.21,-0.0545,-0.1145,0.21,0.0815,-0.0245
-0.7,-0.443,0.257,0.571,-0.4785,-0.093,-0.053,-0.0625,0.147,-0.211,-0.057,-0.116,0.2085,0.071,-0.026
-0.695,-0.4375,0.2575,0.566,-0.476,-0.09,-0.056,-0.0635,0.148,-0.211,-0.054,-0.1145,0.211,0.0715,-0.0295
-0.6825,-0.4265,0.256,0.5545,-0.4695,-0.085,-0.055,-0.06,0.1495,-0.2085,-0.053,-0.114,0.211,0.0845,-0.0235
-0.6865,-0.4225,0.2635,0.5545,-0.475,-0.0795,-0.049,-0.0555,0.1525,-0.2065,-0.052,-0.1125,0.208,0.0875,-0.0215
-0.6945,-0.4255,0.269,0.56,-0.4815,-0.0785,-0.049,-0.0585,0.1515,-0.2075,-0.0515,-0.1145,0.2045,0.074,-0.0205
-0.687,-0.426,0.2605,0.5565,-0.4735,-0.083,-0.054,-0.062,0.1475,-0.214,-0.057,-0.1205,0.2045,0.08,-0.0135
-0.682,-0.421,0.261,0.5515,-0.4715,-0.08,-0.0565,-0.0625,0.147,-0.2135,-0.0555,-0.116,0.2085,0.09,-0.01
-0.697,-0.4215,0.2755,0.559,-0.486,-0.073,-0.0565,-0.064,0.145,-0.2155,-0.057,-0.117,0.2075,0.0845,-0.0085
-0.6975,-0.4205,0.277,0.559,-0.487,-0.072,-0.0565,-0.065,0.144,-0.2175,-0.06,-0.12,0.2045,0.0795,-0.008
-0.689,-0.4155,0.2735,0.5525,-0.4815,-0.071,-0.056,-0.0625,0.1485,-0.215,-0.059,-0.119,0.207,0.082,-0.0065
-0.6875,-0.412,0.2755,0.55,-0.482,-0.068,-0.0535,-0.0585,0.1475,-0.215,-0.058,-0.117,0.207,0.089,-0.0045
-0.6875,-0.411,0.277,0.5495,-0.4825,-0.067,-0.05,-0.0575,0.149,-0.212,-0.052,-0.1135,0.2065,0.0915,-0.0035
-0.6895,-0.411,0.2785,0.55,-0.484,-0.066,-0.05,-0.058,0.1475,-0.214,-0.053,-0.114,0.2095,0.093,-0.0025
-0.6935,-0.4115,0.2825,0.5525,-0.488,-0.0645,-0.0495,-0.059,0.1455,-0.216,-0.056,-0.1155,0.208,0.088,-0.0035
-0.7,-0.4155,0.2845,0.5575,-0.492,-0.0655,-0.051,-0.06,0.147,-0.2145,-0.0555,-0.115,0.2075,0.09,-0.0045
-0.696,-0.4175,0.278,0.557,-0.487,-0.0695,-0.0505,-0.059,0.1445,-0.2165,-0.057,-0.116,0.209,0.0945,-0.004
-0.6965,-0.425,0.271,0.5605,-0.4835,-0.077,-0.047,-0.0605,0.142,-0.2185,-0.0595,-0.119,0.206,0.0865,-0.0055
-0.6955,-0.4315,0.264,0.5635,-0.4795,-0.084,-0.045,-0.059,0.144,-0.2185,-0.059,-0.119,0.205,0.0715,-0.009
-0.68,-0.417,0.263,0.5485,-0.4715,-0.077,-0.04,-0.0515,0.1505,-0.2105,-0.051,-0.111,0.204,0.066,-0.0125
-0.675,-0.4095,0.2655,0.542,-0.4705,-0.0715,-0.034,-0.047,0.155,-0.205,-0.046,-0.106,0.209,0.075,-0.0095
-0.6805,-0.419,0.2615,0.5495,-0.471,-0.0785,-0.033,-0.0455,0.153,-0.2065,-0.0485,-0.106,0.2125,0.073,-0.008
-0.692,-0.4265,0.265,0.5595,-0.4785,-0.081,-0.037,-0.053,0.1465,-0.2105,-0.0535,-0.112,0.2005,0.0695,-0.016
-0.6955,-0.4215,0.274,0.5585,-0.485,-0.074,-0.04,-0.0565,0.1445,-0.2135,-0.055,-0.117,0.199,0.073,-0.0195
-0.6905,-0.4195,0.2715,0.555,-0.481,-0.074,-0.044,-0.055,0.1435,-0.2155,-0.0575,-0.117,0.2015,0.0655,-0.0155
-0.687,-0.4215,0.266,0.5545,-0.4765,-0.078,-0.044,-0.0545,0.144,-0.2145,-0.059,-0.117,0.2,0.0515,-0.0175
-0.6875,-0.4215,0.266,0.5545,-0.4765,-0.0775,-0.041,-0.0555,0.1425,-0.214,-0.059,-0.1175,0.197,0.0595,-0.0185
-0.69,-0.4195,0.271,0.555,-0.4805,-0.0745,-0.0465,-0.0585,0.139,-0.217,-0.062,-0.1195,0.1965,0.074,-0.011
-0.6835,-0.4055,0.278,0.5445,-0.481,-0.0635,-0.0505,-0.0575,0.14,-0.2165,-0.0605,-0.1165,0.2015,0.0795,-0.0085
-0.688,-0.41,0.278,0.549,-0.483,-0.066,-0.052,-0.061,0.136,-0.2195,-0.062,-0.1175,0.2015,0.0745,-0.011
-0.6995,-0.4215,0.278,0.5605,-0.489,-0.0715,-0.053,-0.0695,0.1285,-0.2275,-0.069,-0.126,0.1995,0.073,-0.0075
-0.7015,-0.428,0.273,0.5645,-0.487,-0.0775,-0.0515,-0.0705,0.127,-0.228,-0.0715,-0.1275,0.198,0.0715,-0.0035
-0.7025,-0.4355,0.267,0.569,-0.4845,-0.0845,-0.052,-0.0675,0.129,-0.2255,-0.0695,-0.126,0.198,0.0685,-0.0005
-0.7025,-0.4355,0.267,0.569,-0.485,-0.0845,-0.054,-0.069,0.128,-0.2265,-0.07,-0.1265,0.1955,0.0815,0.004
-0.7045,-0.4305,0.274,0.5675,-0.4895,-0.0785,-0.052,-0.0705,0.1265,-0.225,-0.068,-0.1265,0.1955,0.073,0.0005
-0.7125,-0.433,0.2795,0.573,-0.496,-0.0765,-0.0535,-0.074,0.1215,-0.231,-0.0735,-0.131,0.1935,0.082,-0.004
-0.705,-0.427,0.278,0.566,-0.4915,-0.0745,-0.053,-0.072,0.124,-0.232,-0.0755,-0.129,0.191,0.1005,-0.0065
-0.695,-0.416,0.279,0.5555,-0.487,-0.0685,-0.048,-0.065,0.1335,-0.224,-0.067,-0.123,0.1905,0.0755,-0.006
-0.691,-0.4255,0.2655,0.5585,-0.4785,-0.08,-0.047,-0.0655,0.1305,-0.2255,-0.068,-0.123,0.192,0.0805,0.002
-0.702,-0.4375,0.2645,0.5695,-0.483,-0.0865,-0.048,-0.0715,0.1225,-0.2305,-0.0735,-0.1275,0.194,0.095,-0.0035
-0.6965,-0.435,0.262,0.566,-0.479,-0.0865,-0.0485,-0.069,0.1235,-0.229,-0.071,-0.1255,0.1945,0.086,-0.0165
-0.682,-0.4195,0.2625,0.551,-0.4725,-0.0785,-0.039,-0.058,0.1345,-0.2165,-0.0575,-0.111,0.199,0.1045,-0.018
-0.6815,-0.4155,0.266,0.5485,-0.474,-0.0745,-0.0355,-0.064,0.1315,-0.222,-0.0645,-0.117,0.194,0.101,-0.0155
-0.676,-0.4135,0.2625,0.5445,-0.4695,-0.075,-0.04,-0.072,0.13,-0.2225,-0.066,-0.1225,0.192,0.104,-0.0195
-0.6865,-0.4015,0.285,0.544,-0.4855,-0.0585,-0.0345,-0.071,0.1315,-0.219,-0.059,-0.1135,0.195,0.132,-0.015
-0.6915,-0.3975,0.2935,0.5445,-0.4925,-0.052,-0.0195,-0.0705,0.128,-0.2205,-0.0615,-0.1155,0.1855,0.1145,-0.01
-0.7085,-0.4065,0.302,0.5575,-0.5055,-0.052,-0.015,-0.074,0.128,-0.2175,-0.06,-0.118,0.1775,0.1065,-0.0075
-0.7195,-0.416,0.3035,0.568,-0.5115,-0.056,-0.0215,-0.08,0.1185,-0.231,-0.072,-0.125,0.176,0.105,-0.0075
-0.719,-0.4175,0.3015,0.568,-0.51,-0.058,-0.025,-0.0885,0.1105,-0.2405,-0.082,-0.135,0.174,0.1025,-0.009
-0.7155,-0.418,0.2975,0.5665,-0.5065,-0.06,-0.0325,-0.099,0.1025,-0.248,-0.0885,-0.141,0.1725,0.108,-0.0045
-0.7105,-0.4195,0.2915,0.565,-0.501,-0.064,-0.0305,-0.101,0.1005,-0.246,-0.0865,-0.1415,0.1715,0.102,-0.0075
-0.7165,-0.416,0.3005,0.5665,-0.5085,-0.058,-0.0225,-0.1005,0.1025,-0.241,-0.083,-0.138,0.168,0.104,-0.009
-0.719,-0.4175,0.3015,0.568,-0.5105,-0.058,-0.0205,-0.099,0.1045,-0.2395,-0.082,-0.136,0.1675,0.0955,-0.006
-0.7405,-0.4265,0.314,0.5835,-0.5275,-0.0565,-0.0175,-0.1,0.103,-0.24,-0.082,-0.1365,0.166,0.0945,-0.0055
-0.751,-0.429,0.322,0.5905,-0.5365,-0.0535,-0.0125,-0.1045,0.099,-0.243,-0.0825,-0.1325,0.1655,0.109,-0.006
-0.741,-0.425,0.3155,0.583,-0.528,-0.0545,-0.0115,-0.1075,0.0985,-0.2385,-0.0755,-0.127,0.1695,0.116,-0.0035
-0.7355,-0.424,0.3115,0.58,-0.5235,-0.0565,-0.0155,-0.114,0.091,-0.244,-0.0865,-0.1355,0.164,0.1075,-0.001
-0.7395,-0.4255,0.3135,0.583,-0.5265,-0.056,-0.017,-0.119,0.083,-0.2545,-0.097,-0.1465,0.1525,0.0955,0.0025
-0.741,-0.4285,0.3125,0.585,-0.5265,-0.0585,-0.0155,-0.1205,0.082,-0.2545,-0.094,-0.1445,0.153,0.0945,0.005
-0.7335,-0.4305,0.303,0.582,-0.518,-0.064,-0.02,-0.1235,0.08,-0.2555,-0.0945,-0.143,0.157,0.091,0.007
-0.724,-0.428,0.2955,0.576,-0.51,-0.066,-0.0255,-0.125,0.0775,-0.2575,-0.096,-0.145,0.157,0.0935,0.0095
-0.73,-0.433,0.297,0.5815,-0.5135,-0.068,-0.0275,-0.1265,0.0765,-0.2575,-0.097,-0.1455,0.1555,0.099,0.011
-0.7415,-0.437,0.3045,0.589,-0.523,-0.0665,-0.036,-0.132,0.073,-0.26,-0.099,-0.147,0.155,0.102,0.0115
-0.74,-0.4325,0.307,0.586,-0.5235,-0.063,-0.0405,-0.13,0.076,-0.26,-0.098,-0.1465,0.156,0.103,0.0105
-0.7415,-0.4255,0.3155,0.584,-0.5285,-0.055,-0.042,-0.1295,0.073,-0.263,-0.1,-0.149,0.152,0.104,0.012
-0.7445,-0.4265,0.3175,0.5855,-0.531,-0.0545,-0.049,-0.1335,0.0685,-0.2675,-0.102,-0.15,0.151,0.1055,0.0155
-0.744,-0.431,0.3125,0.5875,-0.5285,-0.059,-0.052,-0.1325,0.071,-0.266,-0.0985,-0.1475,0.153,0.101,0.0135
-0.7515,-0.4375,0.314,0.5945,-0.5325,-0.0615,-0.0585,-0.136,0.066,-0.269,-0.104,-0.153,0.152,0.1035,0.014
-0.7445,-0.431,0.313,0.5875,-0.5285,-0.059,-0.0615,-0.139,0.0655,-0.2695,-0.1065,-0.155,0.151,0.108,0.016
-0.719,-0.3975,0.3215,0.5585,-0.52,-0.0385,-0.0525,-0.1295,0.077,-0.258,-0.095,-0.144,0.1495,0.1095,0.015
-0.715,-0.392,0.323,0.5535,-0.519,-0.0345,-0.052,-0.128,0.078,-0.255,-0.0925,-0.142,0.1485,0.11,0.0155
-0.7165,-0.4025,0.3145,0.5595,-0.5155,-0.044,-0.056,-0.133,0.0715,-0.2615,-0.098,-0.147,0.1475,0.1135,0.018
-0.7285,-0.413,0.3155,0.5705,-0.522,-0.0485,-0.059,-0.137,0.067,-0.266,-0.102,-0.152,0.147,0.1155,0.0195
-0.752,-0.4285,0.3235,0.5905,-0.538,-0.0525,-0.0635,-0.1425,0.062,-0.2705,-0.107,-0.159,0.1455,0.117,0.016
-0.7515,-0.4255,0.326,0.589,-0.539,-0.05,-0.0645,-0.1445,0.061,-0.273,-0.1085,-0.1595,0.145,0.1195,0.015
-0.7415,-0.4225,0.3185,0.582,-0.53,-0.052,-0.0635,-0.144,0.062,-0.272,-0.107,-0.1585,0.146,0.117,0.0155
-0.7405,-0.4245,0.316,0.5825,-0.528,-0.0545,-0.066,-0.1455,0.0605,-0.273,-0.109,-0.16,0.1485,0.1175,0.0155
-0.7365,-0.4295,0.3065,0.583,-0.5215,-0.0615,-0.067,-0.1475,0.06,-0.2765,-0.1115,-0.161,0.148,0.115,0.015
-0.729,-0.435,0.294,0.582,-0.5115,-0.0705,-0.067,-0.144,0.0615,-0.273,-0.109,-0.157,0.148,0.1065,0.0135
-0.7305,-0.436,0.294,0.583,-0.512,-0.071,-0.0695,-0.143,0.064,-0.2695,-0.1065,-0.1585,0.1485,0.098,0.0125
-0.7325,-0.4385,0.294,0.5855,-0.513,-0.0725,-0.0705,-0.145,0.061,-0.271,-0.1075,-0.161,0.1455,0.1015,0.0165
-0.739,-0.4385,0.3005,0.5885,-0.52,-0.069,-0.072,-0.1435,0.0615,-0.272,-0.1065,-0.158,0.1455,0.1125,0.0215
-0.7425,-0.4315,0.311,0.587,-0.5265,-0.0605,-0.0735,-0.144,0.0665,-0.271,-0.108,-0.161,0.1445,0.117,0.0215
-0.739,-0.4295,0.3095,0.5845,-0.5245,-0.06,-0.078,-0.145,0.0615,-0.275,-0.1115,-0.163,0.1435,0.115,0.0225
-0.7415,-0.431,0.3105,0.586,-0.5255,-0.0605,-0.077,-0.1445,0.0625,-0.2745,-0.109,-0.16,0.145,0.1145,0.023
-0.7435,-0.433,0.3105,0.588,-0.5265,-0.061,-0.0785,-0.1465,0.0635,-0.2735,-0.11,-0.161,0.1435,0.116,0.022
-0.7455,-0.435,0.3105,0.59,-0.528,-0.0625,-0.0855,-0.1465,0.0615,-0.2775,-0.1125,-0.163,0.1425,0.1165,0.022
-0.7495,-0.434,0.3155,0.5915,-0.5325,-0.0595,-0.089,-0.151,0.059,-0.2785,-0.1145,-0.1645,0.1425,0.1225,0.0225
-0.7505,-0.434,0.316,0.5925,-0.5335,-0.059,-0.091,-0.1515,0.06,-0.2775,-0.1115,-0.163,0.142,0.135,0.0255
-0.7475,-0.4295,0.3175,0.5885,-0.5325,-0.056,-0.091,-0.1495,0.065,-0.275,-0.109,-0.1575,0.1465,0.1355,0.0295
-0.7515,-0.428,0.3235,0.59,-0.5375,-0.052,-0.094,-0.1535,0.0595,-0.279,-0.1145,-0.1625,0.1455,0.124,0.033
-0.748,-0.427,0.3205,0.5875,-0.534,-0.0535,-0.096,-0.1515,0.061,-0.279,-0.115,-0.164,0.1455,0.1235,0.03
-0.748,-0.4285,0.3195,0.588,-0.534,-0.0545,-0.0935,-0.1445,0.068,-0.2745,-0.1105,-0.16,0.1475,0.1255,0.025
-0.755,-0.4365,0.3185,0.596,-0.537,-0.059,-0.095,-0.1515,0.058,-0.2825,-0.1165,-0.1655,0.1435,0.131,0.0255
-0.7495,-0.4415,0.308,0.5955,-0.529,-0.0665,-0.1025,-0.161,0.051,-0.287,-0.122,-0.17,0.146,0.139,0.026
-0.759,-0.4455,0.3135,0.602,-0.5365,-0.066,-0.1025,-0.1575,0.055,-0.285,-0.1205,-0.171,0.1455,0.121,0.03
-0.759,-0.445,0.3145,0.602,-0.537,-0.065,-0.098,-0.15,0.0595,-0.282,-0.116,-0.1655,0.146,0.1095,0.029
-0.761,-0.45,0.311,0.6055,-0.536,-0.0695,-0.096,-0.1485,0.063,-0.2795,-0.115,-0.164,0.1435,0.118,0.025
-0.7655,-0.4575,0.308,0.6115,-0.537,-0.0745,-0.096,-0.147,0.065,-0.277,-0.1125,-0.162,0.1415,0.1285,0.025
-0.751,-0.4495,0.3015,0.6005,-0.5265,-0.074,-0.097,-0.139,0.07,-0.2715,-0.1065,-0.1565,0.148,0.127,0.023
-0.748,-0.445,0.303,0.5965,-0.5255,-0.071,-0.092,-0.1415,0.0675,-0.276,-0.1135,-0.1635,0.143,0.125,0.027
-0.762,-0.446,0.316,0.6035,-0.539,-0.065,-0.0895,-0.145,0.067,-0.275,-0.1115,-0.1625,0.1415,0.13,0.025
-0.7645,-0.4435,0.321,0.604,-0.5425,-0.061,-0.0915,-0.142,0.0685,-0.273,-0.1095,-0.1615,0.143,0.1255,0.027
-0.763,-0.4465,0.3165,0.6045,-0.54,-0.065,-0.0945,-0.142,0.0635,-0.2785,-0.1165,-0.167,0.1405,0.123,0.029
-0.7615,-0.442,0.3195,0.6015,-0.5405,-0.061,-0.099,-0.1405,0.07,-0.2725,-0.1105,-0.161,0.1435,0.116,0.0215
-0.7495,-0.4365,0.313,0.593,-0.5315,-0.0615,-0.1005,-0.138,0.074,-0.269,-0.1055,-0.1555,0.148,0.1085,0.0275
-0.755,-0.438,0.317,0.5965,-0.536,-0.0605,-0.095,-0.1395,0.07,-0.2675,-0.103,-0.1565,0.1465,0.1145,0.021
-0.7605,-0.4405,0.3195,0.6005,-0.54,-0.0605,-0.1005,-0.145,0.0665,-0.272,-0.1075,-0.1615,0.148,0.1255,0.0185
-0.7645,-0.4405,0.3235,0.6025,-0.544,-0.0585,-0.1025,-0.146,0.0645,-0.2785,-0.1145,-0.1655,0.1545,0.1365,0.033
-0.763,-0.433,0.3295,0.598,-0.5465,-0.0515,-0.097,-0.14,0.07,-0.2745,-0.111,-0.1605,0.1505,0.1315,0.027
-0.743,-0.4165,0.3265,0.5795,-0.5345,-0.045,-0.0995,-0.1355,0.074,-0.2725,-0.107,-0.157,0.146,0.1205,0.0215
-0.741,-0.4115,0.3295,0.576,-0.535,-0.041,-0.1,-0.14,0.071,-0.273,-0.1065,-0.158,0.1495,0.13,0.025
-0.7485,-0.419,0.3295,0.5835,-0.539,-0.0445,-0.1005,-0.141,0.072,-0.2745,-0.108,-0.1575,0.15,0.133,0.025
-0.754,-0.422,0.332,0.588,-0.543,-0.045,-0.1015,-0.14,0.07,-0.277,-0.1105,-0.159,0.1505,0.132,0.03
-0.7515,-0.427,0.3245,0.5895,-0.538,-0.051,-0.104,-0.1435,0.0675,-0.2795,-0.1115,-0.161,0.1525,0.123,0.03
-0.7445,-0.4265,0.3175,0.5855,-0.531,-0.055,-0.1065,-0.141,0.069,-0.2795,-0.1125,-0.162,0.1535,0.1125,0.0265
-0.7395,-0.4215,0.318,0.5805,-0.5285,-0.0515,-0.105,-0.142,0.07,-0.2775,-0.111,-0.1605,0.154,0.113,0.0185
-0.7365,-0.4225,0.314,0.5795,-0.525,-0.054,-0.1025,-0.137,0.075,-0.273,-0.107,-0.157,0.154,0.106,0.0135
-0.7525,-0.434,0.3185,0.593,-0.5355,-0.058,-0.102,-0.1345,0.0755,-0.2715,-0.1065,-0.1575,0.155,0.104,0.0175
-0.756,-0.435,0.321,0.5955,-0.5385,-0.057,-0.101,-0.1355,0.0765,-0.268,-0.1045,-0.156,0.1555,0.1055,0.02
-0.7495,-0.4255,0.3235,0.588,-0.5365,-0.051,-0.0985,-0.126,0.0855,-0.264,-0.0995,-0.153,0.1555,0.1075,0.0265
-0.7475,-0.424,0.3235,0.586,-0.5355,-0.05,-0.1015,-0.138,0.0765,-0.271,-0.104,-0.1565,0.1555,0.1095,0.0305
-0.746,-0.42,0.326,0.583,-0.536,-0.047,-0.105,-0.1455,0.0715,-0.271,-0.106,-0.1565,0.1595,0.1235,0.035
-0.7425,-0.4155,0.3265,0.579,-0.5345,-0.0445,-0.1065,-0.1405,0.0745,-0.2695,-0.105,-0.1545,0.163,0.1315,0.0315
-0.7535,-0.43,0.323,0.592,-0.538,-0.0535,-0.1125,-0.147,0.0705,-0.272,-0.1075,-0.1585,0.1635,0.13,0.0255
-0.7595,-0.4395,0.32,0.5995,-0.54,-0.06,-0.117,-0.149,0.068,-0.272,-0.109,-0.159,0.1665,0.131,0.026
-0.745,-0.426,0.319,0.5855,-0.532,-0.0535,-0.1135,-0.1435,0.0735,-0.269,-0.1065,-0.1565,0.1645,0.1275,0.023
-0.731,-0.4125,0.319,0.572,-0.525,-0.0465,-0.109,-0.1465,0.0735,-0.2665,-0.103,-0.152,0.164,0.13,0.024
-0.732,-0.4185,0.3135,0.575,-0.5225,-0.0525,-0.11,-0.1515,0.066,-0.273,-0.109,-0.157,0.162,0.1275,0.0265
-0.744,-0.4275,0.316,0.5855,-0.53,-0.056,-0.1105,-0.1495,0.0665,-0.2735,-0.1105,-0.16,0.161,0.1245,0.028
-0.731,-0.41,0.321,0.5705,-0.526,-0.0445,-0.1095,-0.1495,0.0695,-0.2675,-0.1055,-0.1525,0.1655,0.129,0.03
-0.73,-0.4065,0.324,0.5685,-0.527,-0.0415,-0.109,-0.1465,0.0745,-0.2635,-0.1025,-0.1545,0.165,0.129,0.03
-0.746,-0.4205,0.3255,0.5835,-0.536,-0.0475,-0.11,-0.151,0.0685,-0.2695,-0.1075,-0.162,0.1625,0.131,0.0285
-0.7455,-0.426,0.319,0.586,-0.5325,-0.0535,-0.109,-0.151,0.0665,-0.274,-0.1095,-0.164,0.161,0.13,0.028
-0.7395,-0.4305,0.309,0.585,-0.5245,-0.0605,-0.1035,-0.1445,0.0725,-0.271,-0.106,-0.16,0.162,0.118,0.028
-0.7425,-0.4355,0.307,0.589,-0.5245,-0.0645,-0.105,-0.144,0.073,-0.2705,-0.1075,-0.1595,0.1635,0.117,0.028
-0.761,-0.4455,0.3155,0.603,-0.5385,-0.065,-0.108,-0.144,0.0715,-0.271,-0.109,-0.1625,0.1645,0.1195,0.028
-0.755,-0.44,0.315,0.5975,-0.535,-0.0625,-0.1035,-0.1425,0.0705,-0.272,-0.108,-0.161,0.1635,0.111,0.029
-0.746,-0.439,0.3065,0.5925,-0.5265,-0.066,-0.1015,-0.1395,0.0745,-0.269,-0.1065,-0.157,0.166,0.1065,0.0285
-0.759,-0.455,0.304,0.607,-0.5315,-0.0755,-0.108,-0.145,0.0685,-0.275,-0.1135,-0.163,0.1665,0.109,0.028
-0.7495,-0.4465,0.303,0.598,-0.526,-0.072,-0.103,-0.1405,0.077,-0.265,-0.1045,-0.157,0.168,0.113,0.0265
-0.7295,-0.4285,0.3005,0.579,-0.515,-0.064,-0.098,-0.1355,0.0835,-0.256,-0.095,-0.147,0.1725,0.117,0.024
-0.7185,-0.4215,0.297,0.5705,-0.508,-0.0625,-0.105,-0.14,0.073,-0.268,-0.104,-0.1535,0.1715,0.117,0.0265
-0.7195,-0.4165,0.303,0.568,-0.511,-0.0565,-0.104,-0.139,0.0745,-0.2695,-0.106,-0.157,0.17,0.122,0.0265
-0.735,-0.4195,0.3155,0.5775,-0.525,-0.0525,-0.1005,-0.137,0.077,-0.2665,-0.1035,-0.1545,0.1675,0.124,0.027
-0.745,-0.4285,0.316,0.5865,-0.5305,-0.056,-0.0975,-0.1335,0.0805,-0.266,-0.102,-0.1545,0.1645,0.1155,0.0265
-0.7405,-0.431,0.3095,0.586,-0.525,-0.061,-0.096,-0.132,0.081,-0.2645,-0.1005,-0.152,0.168,0.114,0.0255
-0.7345,-0.4245,0.31,0.5795,-0.5225,-0.057,-0.099,-0.1345,0.0815,-0.2605,-0.0965,-0.148,0.173,0.1195,0.025
-0.732,-0.421,0.3115,0.5765,-0.522,-0.055,-0.101,-0.137,0.08,-0.265,-0.1035,-0.1595,0.168,0.1235,0.023
-0.742,-0.42,0.322,0.581,-0.532,-0.049,-0.0995,-0.1355,0.082,-0.265,-0.1025,-0.157,0.1685,0.124,0.0225
-0.7425,-0.416,0.3265,0.579,-0.5345,-0.0445,-0.1035,-0.1375,0.0815,-0.265,-0.101,-0.1565,0.1725,0.1325,0.0215
-0.7445,-0.4165,0.328,0.5805,-0.536,-0.044,-0.103,-0.1365,0.08,-0.264,-0.1015,-0.157,0.172,0.133,0.022
-0.767,-0.418,0.349,0.5925,-0.558,-0.034,-0.092,-0.126,0.0885,-0.2555,-0.0915,-0.146,0.172,0.1265,0.023
-0.7765,-0.418,0.3585,0.5975,-0.5675,-0.03,-0.0875,-0.124,0.091,-0.2535,-0.0905,-0.146,0.172,0.131,0.0215
-0.7645,-0.4205,0.344,0.5925,-0.5545,-0.038,-0.091,-0.129,0.086,-0.2575,-0.0955,-0.1505,0.1725,0.131,0.0225
-0.765,-0.421,0.344,0.593,-0.5545,-0.0385,-0.094,-0.1295,0.087,-0.261,-0.0985,-0.1525,0.172,0.13,0.02
-0.7745,-0.4195,0.355,0.597,-0.565,-0.032,-0.091,-0.127,0.0885,-0.2565,-0.095,-0.1495,0.1725,0.134,0.019
-0.764,-0.4225,0.341,0.593,-0.5525,-0.0405,-0.0905,-0.1275,0.086,-0.257,-0.096,-0.152,0.171,0.127,0.021
-0.766,-0.425,0.34,0.5955,-0.553,-0.0425,-0.0895,-0.1235,0.091,-0.2545,-0.096,-0.1495,0.1715,0.1175,0.0215
-0.7635,-0.4245,0.339,0.594,-0.5515,-0.0425,-0.0865,-0.122,0.092,-0.2525,-0.093,-0.146,0.172,0.1195,0.021
-0.756,-0.432,0.324,0.594,-0.54,-0.054,-0.09,-0.125,0.0915,-0.253,-0.0935,-0.1495,0.173,0.118,0.022
-0.7605,-0.4335,0.327,0.597,-0.5435,-0.0535,-0.087,-0.1245,0.0925,-0.2515,-0.0925,-0.15,0.171,0.118,0.0215
-0.7625,-0.4265,0.336,0.5945,-0.549,-0.0455,-0.0825,-0.1235,0.0915,-0.252,-0.0935,-0.1485,0.171,0.1075,0.02
-0.759,-0.429,0.33,0.594,-0.5445,-0.0495,-0.087,-0.1275,0.087,-0.258,-0.099,-0.1535,0.17,0.1045,0.0205
-0.7445,-0.435,0.3095,0.5895,-0.5265,-0.063,-0.0935,-0.1345,0.08,-0.267,-0.1065,-0.1595,0.169,0.117,0.0205
-0.7355,-0.4395,0.296,0.5875,-0.5155,-0.072,-0.095,-0.1375,0.0795,-0.2675,-0.106,-0.1605,0.1725,0.105,0.0205
-0.725,-0.441,0.284,0.583,-0.5045,-0.0785,-0.1005,-0.138,0.0785,-0.27,-0.107,-0.1615,0.174,0.11,0.018
-0.7245,-0.4465,0.278,0.585,-0.501,-0.084,-0.108,-0.145,0.071,-0.2765,-0.115,-0.167,0.1765,0.128,0.027
-0.723,-0.443,0.28,0.583,-0.5015,-0.0815,-0.1075,-0.1505,0.063,-0.284,-0.123,-0.1775,0.1735,0.1205,0.0245
-0.722,-0.4375,0.284,0.5795,-0.503,-0.0765,-0.1085,-0.148,0.0665,-0.2815,-0.1205,-0.176,0.175,0.1165,0.0155
-0.729,-0.439,0.29,0.584,-0.5095,-0.0745,-0.1075,-0.15,0.066,-0.2795,-0.118,-0.1725,0.178,0.1445,0.02
-0.7235,-0.436,0.287,0.5795,-0.505,-0.0745,-0.1035,-0.148,0.0665,-0.28,-0.1165,-0.1705,0.176,0.154,0.019
-0.726,-0.4355,0.2905,0.581,-0.5085,-0.0725,-0.1025,-0.141,0.073,-0.2735,-0.111,-0.1665,0.176,0.129,0.0185
-0.738,-0.433,0.305,0.5855,-0.5215,-0.064,-0.0955,-0.1345,0.079,-0.2695,-0.109,-0.162,0.1755,0.116,0.0205
-0.7545,-0.434,0.321,0.5945,-0.5375,-0.0565,-0.0885,-0.1295,0.084,-0.264,-0.101,-0.157,0.1735,0.1215,0.025
-0.7475,-0.429,0.3185,0.5885,-0.533,-0.055,-0.086,-0.131,0.08,-0.2625,-0.1015,-0.159,0.1725,0.1225,0.0205
-0.7315,-0.4285,0.303,0.58,-0.517,-0.063,-0.087,-0.1325,0.0785,-0.268,-0.1075,-0.1615,0.1745,0.112,0.0145
-0.7365,-0.438,0.2985,0.5875,-0.5175,-0.0695,-0.091,-0.1265,0.082,-0.268,-0.105,-0.16,0.173,0.1155,0.021
-0.735,-0.4385,0.296,0.5865,-0.5155,-0.0715,-0.0875,-0.126,0.0835,-0.266,-0.106,-0.16,0.174,0.1055,0.021
-0.7365,-0.4415,0.295,0.589,-0.516,-0.073,-0.082,-0.1285,0.083,-0.265,-0.105,-0.158,0.172,0.097,0.0185
-0.742,-0.4435,0.2985,0.5925,-0.52,-0.0725,-0.0805,-0.1265,0.083,-0.264,-0.103,-0.1565,0.17,0.0965,0.02
-0.736,-0.4425,0.2935,0.5895,-0.515,-0.0745,-0.079,-0.128,0.0855,-0.2625,-0.1025,-0.156,0.174,0.09,0.0215
-0.7325,-0.44,0.293,0.5865,-0.513,-0.0735,-0.0785,-0.125,0.087,-0.2605,-0.1005,-0.154,0.1745,0.093,0.023
-0.735,-0.437,0.298,0.586,-0.5165,-0.0695,-0.0785,-0.125,0.084,-0.2635,-0.1025,-0.1565,0.1735,0.087,0.016
-0.7385,-0.436,0.303,0.5875,-0.5205,-0.0665,-0.0785,-0.1285,0.082,-0.265,-0.103,-0.1585,0.1715,0.0965,0.017
-0.736,-0.431,0.305,0.584,-0.5205,-0.063,-0.08,-0.1275,0.0825,-0.265,-0.1025,-0.1565,0.1725,0.1035,0.0245
-0.7335,-0.428,0.3055,0.581,-0.5195,-0.0615,-0.077,-0.1275,0.0835,-0.2655,-0.1005,-0.154,0.173,0.0925,0.0185
-0.738,-0.428,0.31,0.583,-0.524,-0.059,-0.079,-0.1305,0.082,-0.2675,-0.1035,-0.1565,0.1715,0.1,0.0195
-0.7355,-0.4245,0.311,0.58,-0.5235,-0.0565,-0.082,-0.1345,0.0785,-0.271,-0.107,-0.161,0.171,0.106,0.021
-0.7335,-0.418,0.3155,0.576,-0.5245,-0.0515,-0.0795,-0.1335,0.0805,-0.2695,-0.105,-0.161,0.1695,0.113,0.0195
-0.731,-0.4145,0.317,0.573,-0.524,-0.049,-0.079,-0.133,0.08,-0.269,-0.1055,-0.1585,0.172,0.113,0.021
-0.7365,-0.4225,0.314,0.58,-0.5255,-0.0545,-0.0765,-0.1335,0.079,-0.269,-0.104,-0.1575,0.17,0.0995,0.021
-0.7405,-0.429,0.3115,0.5845,-0.5255,-0.059,-0.0735,-0.131,0.08,-0.269,-0.1035,-0.158,0.1685,0.0975,0.021
-0.736,-0.423,0.313,0.5795,-0.5245,-0.055,-0.069,-0.129,0.085,-0.265,-0.0995,-0.154,0.17,0.1085,0.02
-0.73,-0.4135,0.316,0.5715,-0.523,-0.0485,-0.0675,-0.1285,0.0885,-0.259,-0.093,-0.149,0.1715,0.117,0.0255
-0.7145,-0.411,0.3035,0.563,-0.509,-0.0535,-0.072,-0.1295,0.08,-0.267,-0.102,-0.1565,0.171,0.108,0.0285
-0.722,-0.418,0.304,0.57,-0.5135,-0.057,-0.075,-0.1355,0.0775,-0.272,-0.1085,-0.165,0.1645,0.109,0.0265
-0.7305,-0.4215,0.309,0.576,-0.52,-0.056,-0.0685,-0.136,0.08,-0.2685,-0.105,-0.1625,0.162,0.114,0.0275
-0.728,-0.42,0.308,0.574,-0.518,-0.056,-0.062,-0.1335,0.079,-0.2685,-0.104,-0.1585,0.16,0.107,0.028
-0.7385,-0.427,0.3115,0.583,-0.525,-0.058,-0.0635,-0.134,0.08,-0.2665,-0.104,-0.16,0.1605,0.0975,0.0275
-0.7465,-0.4355,0.311,0.591,-0.5285,-0.0625,-0.063,-0.133,0.081,-0.2675,-0.104,-0.159,0.162,0.0955,0.0275
-0.738,-0.434,0.304,0.586,-0.521,-0.065,-0.0655,-0.1355,0.076,-0.276,-0.1115,-0.1625,0.158,0.093,0.0285
-0.729,-0.4245,0.3045,0.5765,-0.517,-0.0595,-0.0655,-0.1355,0.0775,-0.275,-0.1095,-0.159,0.1635,0.096,0.027
-0.7345,-0.4195,0.315,0.577,-0.525,-0.0525,-0.0625,-0.1315,0.0835,-0.268,-0.1025,-0.1535,0.165,0.11,0.024
-0.7285,-0.4145,0.314,0.5715,-0.521,-0.05,-0.06,-0.1335,0.0815,-0.27,-0.1075,-0.163,0.163,0.106,0.028
-0.713,-0.4085,0.3045,0.561,-0.509,-0.052,-0.0545,-0.1325,0.082,-0.2695,-0.107,-0.163,0.1565,0.1015,0.0255
-0.7145,-0.4145,0.3005,0.5645,-0.5075,-0.057,-0.0525,-0.128,0.083,-0.267,-0.1035,-0.159,0.1495,0.1035,0.021
-0.7295,-0.4115,0.318,0.5705,-0.524,-0.0465,-0.048,-0.126,0.085,-0.265,-0.1015,-0.1565,0.1535,0.1095,0.024
-0.733,-0.403,0.33,0.568,-0.5315,-0.0365,-0.044,-0.1265,0.086,-0.2625,-0.098,-0.152,0.155,0.1175,0.022
-0.7315,-0.3995,0.332,0.5655,-0.532,-0.0335,-0.045,-0.1265,0.0845,-0.264,-0.1015,-0.156,0.1555,0.1235,0.0205
-0.7385,-0.401,0.3375,0.57,-0.538,-0.032,-0.0465,-0.127,0.084,-0.2685,-0.1085,-0.1635,0.15,0.129,0.017
-0.744,-0.412,0.3315,0.578,-0.5375,-0.04,-0.0445,-0.129,0.0815,-0.2705,-0.11,-0.1635,0.1485,0.1285,0.018
-0.7415,-0.42,0.3215,0.5805,-0.5315,-0.049,-0.044,-0.1325,0.078,-0.2725,-0.1125,-0.1655,0.15,0.122,0.0195
-0.732,-0.411,0.321,0.5715,-0.5265,-0.045,-0.0425,-0.125,0.0845,-0.267,-0.1045,-0.1605,0.1535,0.118,0.0125
-0.7355,-0.4045,0.3315,0.57,-0.5335,-0.0365,-0.0425,-0.124,0.0865,-0.2665,-0.1025,-0.1595,0.1525,0.1345,0.011
-0.7465,-0.4045,0.342,0.5755,-0.544,-0.031,-0.043,-0.1255,0.0875,-0.264,-0.103,-0.161,0.1515,0.138,0.009
-0.7475,-0.403,0.3445,0.5755,-0.5465,-0.029,-0.0385,-0.12,0.092,-0.2625,-0.0995,-0.1545,0.152,0.1355,0.01
-0.7575,-0.409,0.349,0.5835,-0.5535,-0.03,-0.035,-0.1215,0.0895,-0.2725,-0.1115,-0.1585,0.142,0.1245,0.014
-0.7465,-0.4015,0.345,0.574,-0.5455,-0.0285,-0.0355,-0.1165,0.093,-0.271,-0.1135,-0.1605,0.1395,0.1125,0.015
-0.7145,-0.3955,0.319,0.555,-0.5165,-0.0385,-0.0455,-0.1205,0.087,-0.2765,-0.118,-0.1665,0.1405,0.124,0.015
-0.7185,-0.3985,0.32,0.5585,-0.5195,-0.039,-0.049,-0.123,0.084,-0.279,-0.117,-0.164,0.1435,0.1265,0.014
-0.7355,-0.401,0.3345,0.568,-0.535,-0.0335,-0.047,-0.116,0.0905,-0.272,-0.111,-0.161,0.143,0.125,0.012
-0.7315,-0.396,0.336,0.5635,-0.5335,-0.03,-0.0505,-0.1145,0.091,-0.27,-0.1075,-0.1625,0.1425,0.126,0.0125
-0.7275,-0.389,0.339,0.5585,-0.5335,-0.025,-0.055,-0.116,0.0905,-0.268,-0.1025,-0.1575,0.145,0.1245,0.015
-0.724,-0.3855,0.3385,0.555,-0.5315,-0.0235,-0.0585,-0.1165,0.092,-0.263,-0.1005,-0.1565,0.1485,0.1295,0.013
-0.7115,-0.3805,0.331,0.546,-0.5215,-0.0245,-0.063,-0.117,0.092,-0.2635,-0.099,-0.157,0.1505,0.1355,0.0145
-0.7175,-0.3855,0.332,0.5515,-0.5245,-0.027,-0.066,-0.1155,0.0965,-0.257,-0.097,-0.1575,0.149,0.1295,0.0155
-0.7245,-0.3825,0.342,0.5535,-0.533,-0.02,-0.0675,-0.113,0.1015,-0.247,-0.0895,-0.1525,0.157,0.129,0.0125
-0.7345,-0.3925,0.342,0.564,-0.538,-0.0255,-0.073,-0.1205,0.0945,-0.2545,-0.0955,-0.1565,0.1535,0.1405,0.0165
-0.7355,-0.398,0.3375,0.567,-0.5365,-0.0305,-0.0805,-0.1235,0.093,-0.2535,-0.0965,-0.157,0.154,0.138,0.0115
-0.729,-0.3825,0.3465,0.556,-0.538,-0.018,-0.085,-0.1225,0.0955,-0.2505,-0.0945,-0.1545,0.159,0.1345,-0.001
-0.7405,-0.382,0.358,0.561,-0.5495,-0.012,-0.0875,-0.123,0.093,-0.2525,-0.097,-0.1535,0.1595,0.1465,0.005
-0.7465,-0.392,0.3545,0.5695,-0.5505,-0.0185,-0.089,-0.125,0.09,-0.2575,-0.1005,-0.1575,0.158,0.151,0.0115
-0.753,-0.4025,0.3505,0.5775,-0.552,-0.026,-0.0865,-0.1295,0.0855,-0.262,-0.107,-0.1635,0.153,0.1495,0.0075
-0.739,-0.389,0.35,0.564,-0.544,-0.0195,-0.086,-0.127,0.089,-0.256,-0.1005,-0.1575,0.1555,0.137,0.0065
-0.7295,-0.3735,0.3565,0.5515,-0.543,-0.0085,-0.082,-0.117,0.097,-0.2505,-0.094,-0.151,0.1545,0.1245,0.006
-0.7365,-0.371,0.3655,0.554,-0.551,-0.003,-0.0735,-0.111,0.1015,-0.248,-0.0925,-0.149,0.1515,0.1315,0.0035
-0.7345,-0.374,0.3605,0.5545,-0.5475,-0.007,-0.07,-0.11,0.102,-0.2505,-0.095,-0.149,0.1495,0.1335,0.0025
-0.742,-0.384,0.358,0.563,-0.55,-0.013,-0.0635,-0.104,0.108,-0.241,-0.084,-0.135,0.1545,0.1215,-0.0025
-0.7425,-0.3845,0.3575,0.5635,-0.55,-0.0135,-0.0655,-0.108,0.107,-0.237,-0.0805,-0.1405,0.151,0.1125,-0.0015
-0.732,-0.3955,0.3365,0.564,-0.534,-0.0295,-0.0785,-0.1195,0.0915,-0.2555,-0.1005,-0.1585,0.146,0.1125,0.011
-0.7375,-0.408,0.329,0.5725,-0.5335,-0.0395,-0.08,-0.122,0.091,-0.259,-0.105,-0.157,0.1525,0.1155,0.0105
-0.7435,-0.404,0.34,0.5735,-0.5415,-0.032,-0.0765,-0.121,0.091,-0.256,-0.102,-0.1565,0.1515,0.123,0.009
-0.7495,-0.408,0.3415,0.579,-0.5455,-0.0335,-0.074,-0.118,0.0885,-0.2585,-0.1035,-0.1585,0.15,0.125,0.016
-0.7655,-0.415,0.3505,0.59,-0.558,-0.0325,-0.073,-0.119,0.088,-0.263,-0.1115,-0.167,0.145,0.123,0.02
-0.7625,-0.4075,0.3555,0.585,-0.559,-0.026,-0.064,-0.1185,0.088,-0.263,-0.11,-0.1655,0.1415,0.125,0.019
-0.752,-0.4045,0.3475,0.5785,-0.5495,-0.0285,-0.0595,-0.1145,0.0905,-0.259,-0.1055,-0.1605,0.1435,0.1235,0.018
-0.7455,-0.4055,0.34,0.5755,-0.5425,-0.0325,-0.0675,-0.1215,0.089,-0.2595,-0.108,-0.1645,0.1465,0.1235,0.013
-0.7335,-0.388,0.3455,0.561,-0.5395,-0.021,-0.064,-0.1215,0.088,-0.2585,-0.106,-0.1605,0.147,0.1325,0.0095
-0.725,-0.374,0.351,0.5495,-0.538,-0.0115,-0.0585,-0.1145,0.0915,-0.256,-0.1015,-0.157,0.145,0.1305,0.0135
-0.728,-0.377,0.3515,0.5525,-0.54,-0.0125,-0.0545,-0.11,0.0975,-0.2515,-0.0965,-0.1565,0.147,0.131,0.0135
-0.746,-0.382,0.3645,0.564,-0.555,-0.009,-0.0545,-0.1085,0.097,-0.2535,-0.0985,-0.1585,0.1465,0.1395,0.012
-0.7475,-0.3895,0.358,0.5685,-0.5525,-0.016,-0.0625,-0.118,0.0905,-0.261,-0.103,-0.1625,0.145,0.133,0.013
-0.7425,-0.403,0.3395,0.5725,-0.541,-0.0315,-0.0675,-0.1275,0.0825,-0.268,-0.111,-0.1685,0.146,0.121,0.0145
-0.7565,-0.4195,0.337,0.5875,-0.5465,-0.041,-0.074,-0.1295,0.078,-0.274,-0.117,-0.1755,0.145,0.1185,0.0105
-0.761,-0.4175,0.3435,0.589,-0.5525,-0.037,-0.0755,-0.127,0.08,-0.272,-0.114,-0.1745,0.1485,0.1325,0.011
-0.7545,-0.407,0.3475,0.581,-0.551,-0.0295,-0.073,-0.122,0.084,-0.266,-0.1085,-0.169,0.151,0.135,0.0165
-0.7455,-0.4035,0.342,0.5745,-0.5435,-0.0305,-0.0695,-0.1145,0.091,-0.2585,-0.1005,-0.1625,0.153,0.1225,0.014
-0.738,-0.3955,0.3425,0.567,-0.54,-0.0265,-0.068,-0.11,0.0965,-0.2535,-0.0975,-0.1585,0.154,0.1245,0.0115
-0.7375,-0.396,0.342,0.567,-0.54,-0.027,-0.071,-0.1115,0.0955,-0.2535,-0.099,-0.16,0.1525,0.132,0.009
-0.7415,-0.3975,0.3435,0.5695,-0.5425,-0.027,-0.0745,-0.1115,0.0945,-0.256,-0.1005,-0.162,0.1535,0.132,0.0065
-0.757,-0.4085,0.3485,0.5825,-0.5525,-0.03,-0.0815,-0.1145,0.09,-0.2605,-0.105,-0.1665,0.155,0.1275,0.0
-0.7635,-0.4165,0.347,0.59,-0.5555,-0.0345,-0.0855,-0.1155,0.0915,-0.26,-0.106,-0.1675,0.157,0.124,-0.005
-0.762,-0.416,0.3455,0.589,-0.5535,-0.035,-0.0865,-0.1115,0.093,-0.2585,-0.103,-0.1655,0.159,0.118,-0.0065
-0.7595,-0.417,0.3425,0.5885,-0.551,-0.037,-0.0895,-0.1095,0.093,-0.26,-0.104,-0.166,0.1585,0.1195,-0.0035
-0.75,-0.4065,0.3435,0.578,-0.5465,-0.0315,-0.085,-0.1065,0.097,-0.2565,-0.1005,-0.161,0.157,0.119,0.009
-0.751,-0.406,0.345,0.5785,-0.548,-0.0305,-0.0855,-0.107,0.097,-0.2525,-0.0955,-0.1565,0.1585,0.129,0.016
-0.769,-0.4165,0.353,0.5925,-0.561,-0.0315,-0.0915,-0.1115,0.0945,-0.2565,-0.1,-0.161,0.1615,0.148,0.015
-0.7795,-0.416,0.3635,0.5975,-0.5715,-0.026,-0.0925,-0.112,0.092,-0.2615,-0.1025,-0.1635,0.16,0.1425,0.0115
-0.7675,-0.409,0.3585,0.588,-0.563,-0.0255,-0.0935,-0.109,0.0945,-0.26,-0.1005,-0.1605,0.1615,0.1425,0.0105
-0.755,-0.403,0.352,0.579,-0.5535,-0.0255,-0.096,-0.115,0.0935,-0.26,-0.101,-0.159,0.164,0.143,0.0115
-0.755,-0.404,0.351,0.58,-0.5535,-0.0265,-0.098,-0.1215,0.088,-0.262,-0.101,-0.161,0.1625,0.139,0.0115
-0.7565,-0.4075,0.3485,0.582,-0.5525,-0.0295,-0.096,-0.1155,0.093,-0.2565,-0.098,-0.1595,0.161,0.14,0.0115
-0.7615,-0.41,0.3515,0.5855,-0.5565,-0.0295,-0.096,-0.1175,0.0895,-0.262,-0.1035,-0.1615,0.159,0.1375,0.0145
-0.767,-0.4185,0.3485,0.5925,-0.5575,-0.0345,-0.103,-0.1235,0.0795,-0.272,-0.1125,-0.1695,0.1565,0.131,0.0135
-0.759,-0.412,0.347,0.5855,-0.5535,-0.032,-0.105,-0.1215,0.085,-0.266,-0.108,-0.1645,0.1605,0.134,0.0065
-0.7575,-0.411,0.3465,0.584,-0.552,-0.032,-0.1075,-0.1255,0.083,-0.2655,-0.108,-0.163,0.1625,0.1405,0.0075
-0.76,-0.4195,0.341,0.5895,-0.5505,-0.039,-0.109,-0.1285,0.0805,-0.268,-0.1095,-0.165,0.159,0.1325,0.008
-0.772,-0.427,0.3445,0.5995,-0.5585,-0.0415,-0.108,-0.1285,0.0805,-0.2685,-0.109,-0.1635,0.1595,0.1325,0.0045
-0.7665,-0.429,0.337,0.598,-0.552,-0.046,-0.109,-0.1285,0.0825,-0.268,-0.1085,-0.165,0.159,0.123,0.003
-0.76,-0.4275,0.3325,0.5935,-0.546,-0.0475,-0.11,-0.1295,0.0805,-0.269,-0.1085,-0.1655,0.1585,0.121,0.0035
-0.769,-0.4295,0.3395,0.599,-0.5545,-0.045,-0.1085,-0.1315,0.079,-0.2715,-0.111,-0.1645,0.1605,0.127,0.0105
-0.7585,-0.4205,0.338,0.5895,-0.5485,-0.0415,-0.1065,-0.129,0.083,-0.267,-0.1065,-0.161,0.1625,0.1265,0.011
-0.749,-0.4205,0.328,0.585,-0.5385,-0.0465,-0.1085,-0.128,0.083,-0.2645,-0.1055,-0.1625,0.165,0.135,0.011
-0.7515,-0.4285,0.323,0.59,-0.5375,-0.053,-0.1095,-0.131,0.082,-0.2675,-0.108,-0.163,0.164,0.1335,0.012
-0.764,-0.4375,0.3265,0.601,-0.5455,-0.0555,-0.109,-0.133,0.081,-0.267,-0.1075,-0.162,0.162,0.1275,0.014
-0.773,-0.4375,0.335,0.605,-0.554,-0.0515,-0.1095,-0.1295,0.085,-0.2605,-0.103,-0.159,0.166,0.126,0.0195
-0.77,-0.427,0.3425,0.5985,-0.5565,-0.0425,-0.113,-0.1305,0.0835,-0.2625,-0.1055,-0.161,0.1665,0.131,0.0185
-0.7565,-0.421,0.3355,0.5885,-0.546,-0.043,-0.116,-0.136,0.079,-0.267,-0.109,-0.166,0.166,0.1385,0.0175
-0.7525,-0.4175,0.3355,0.585,-0.5445,-0.041,-0.116,-0.134,0.085,-0.2585,-0.103,-0.1615,0.1705,0.14,0.0155
-0.7595,-0.4165,0.343,0.5875,-0.551,-0.0365,-0.1165,-0.133,0.092,-0.25,-0.098,-0.159,0.174,0.142,0.012
-0.762,-0.4175,0.3445,0.59,-0.553,-0.0365,-0.116,-0.1325,0.1005,-0.2405,-0.0905,-0.1565,0.178,0.146,0.012
-0.7595,-0.419,0.3405,0.589,-0.55,-0.039,-0.113,-0.1275,0.1115,-0.2235,-0.0805,-0.1485,0.1845,0.146,0.011
-0.759,-0.4165,0.343,0.5875,-0.551,-0.0365,-0.113,-0.1285,0.1175,-0.2135,-0.0735,-0.146,0.1875,0.149,0.0065
-0.7695,-0.4175,0.352,0.5935,-0.5605,-0.033,-0.1135,-0.126,0.129,-0.202,-0.0645,-0.142,0.191,0.1465,0.0
-0.7715,-0.416,0.3555,0.594,-0.5635,-0.03,-0.113,-0.124,0.14,-0.186,-0.054,-0.137,0.198,0.1465,-0.0065
-0.7725,-0.4115,0.3615,0.592,-0.567,-0.025,-0.1095,-0.12,0.153,-0.1715,-0.0445,-0.135,0.2015,0.1545,-0.014
-0.771,-0.4105,0.361,0.591,-0.566,-0.0245,-0.108,-0.112,0.176,-0.1495,-0.032,-0.1285,0.2075,0.158,-0.02
-0.7635,-0.4085,0.355,0.586,-0.5595,-0.0265,-0.1105,-0.1085,0.197,-0.124,-0.015,-0.1215,0.216,0.1595,-0.032
-0.7595,-0.406,0.3535,0.583,-0.5565,-0.0265,-0.115,-0.1025,0.2205,-0.0975,0.0075,-0.1095,0.231,0.152,-0.0435
-0.749,-0.3995,0.3495,0.574,-0.549,-0.025,-0.116,-0.091,0.25,-0.07,0.029,-0.0945,0.2465,0.154,-0.0465
-0.7385,-0.3925,0.346,0.5655,-0.542,-0.0235,-0.1145,-0.08,0.278,-0.046,0.047,-0.083,0.2605,0.1655,-0.05
-0.739,-0.3825,0.3565,0.561,-0.548,-0.013,-0.1185,-0.0825,0.284,-0.035,0.058,-0.076,0.2745,0.1725,-0.054
-0.746,-0.3745,0.371,0.56,-0.5585,-0.0015,-0.1195,-0.0865,0.2825,-0.0295,0.066,-0.066,0.2705,0.1735,-0.0635
-0.737,-0.371,0.366,0.554,-0.5515,-0.0025,-0.122,-0.0935,0.2765,-0.0355,0.0615,-0.067,0.269,0.178,-0.071
-0.7325,-0.3695,0.363,0.551,-0.548,-0.0035,-0.118,-0.1005,0.254,-0.064,0.038,-0.0835,0.26,0.1845,-0.071
-0.7495,-0.37,0.3795,0.56,-0.5645,0.0045,-0.1055,-0.095,0.234,-0.091,0.019,-0.0935,0.2415,0.18,-0.0675
-0.7555,-0.3675,0.388,0.5615,-0.572,0.01,-0.101,-0.0985,0.203,-0.13,-0.011,-0.1085,0.2275,0.1835,-0.066
-0.7695,-0.3645,0.4045,0.567,-0.587,0.02,-0.0985,-0.1235,0.145,-0.188,-0.054,-0.134,0.202,0.189,-0.0745
-0.79,-0.364,0.4265,0.577,-0.608,0.031,-0.0925,-0.1435,0.0905,-0.237,-0.086,-0.152,0.1785,0.1915,-0.0745
-0.7935,-0.3615,0.432,0.5775,-0.613,0.0355,-0.084,-0.157,0.0555,-0.2695,-0.108,-0.159,0.1655,0.196,-0.0775
-0.796,-0.3595,0.436,0.578,-0.616,0.038,-0.0815,-0.1755,0.0255,-0.2885,-0.113,-0.154,0.1655,0.196,-0.0855
-0.791,-0.3535,0.4375,0.572,-0.614,0.042,-0.08,-0.2045,-0.0165,-0.324,-0.129,-0.1485,0.1635,0.1995,-0.0855
-0.7895,-0.3485,0.4405,0.569,-0.615,0.046,-0.076,-0.2335,-0.06,-0.371,-0.159,-0.152,0.155,0.2,-0.0875
-0.7985,-0.3525,0.446,0.5755,-0.622,0.0465,-0.0755,-0.2475,-0.0915,-0.4025,-0.1765,-0.1495,0.1525,0.1995,-0.083
-0.79,-0.3525,0.438,0.571,-0.614,0.043,-0.0695,-0.2495,-0.1215,-0.439,-0.194,-0.1415,0.151,0.1935,-0.0765
-0.769,-0.36,0.409,0.5645,-0.589,0.0245,-0.0635,-0.236,-0.137,-0.4685,-0.2085,-0.132,0.1585,0.176,-0.07
-0.744,-0.3665,0.3775,0.5555,-0.561,0.0055,-0.068,-0.2505,-0.1705,-0.502,-0.2225,-0.123,0.1655,0.1585,-0.064
-0.7275,-0.381,0.3465,0.554,-0.537,-0.017,-0.072,-0.266,-0.204,-0.527,-0.2285,-0.107,0.181,0.1445,-0.0565
-0.713,-0.4005,0.312,0.557,-0.5125,-0.0445,-0.0675,-0.2395,-0.213,-0.551,-0.237,-0.0945,0.193,0.1225,-0.0455
-0.6995,-0.4115,0.2875,0.5555,-0.4935,-0.062,-0.0555,-0.228,-0.2485,-0.6055,-0.271,-0.0995,0.183,0.102,-0.029
-0.7045,-0.428,0.276,0.5665,-0.4905,-0.076,-0.05,-0.26,-0.329,-0.6815,-0.32,-0.1105,0.1655,0.0845,0.0055
-0.704,-0.4335,0.2705,0.569,-0.487,-0.0815,-0.0475,-0.3,-0.4225,-0.775,-0.385,-0.1295,0.139,0.0655,0.038
-0.7,-0.4445,0.2555,0.5725,-0.478,-0.0945,-0.0435,-0.3285,-0.497,-0.861,-0.449,-0.149,0.114,0.066,0.067
-0.693,-0.455,0.238,0.574,-0.4655,-0.1085,-0.039,-0.34,-0.5535,-0.9365,-0.508,-0.167,0.0935,0.045,0.0905
-0.695,-0.4595,0.2355,0.5775,-0.465,-0.112,-0.0375,-0.3505,-0.615,-1.0135,-0.5665,-0.1845,0.0725,0.0355,0.1215
-0.6915,-0.468,0.2235,0.5795,-0.4575,-0.122,-0.0405,-0.3725,-0.6905,-1.0965,-0.631,-0.2055,0.048,0.0495,0.1665
-0.677,-0.4695,0.2075,0.5735,-0.442,-0.1315,-0.0385,-0.404,-0.777,-1.1875,-0.7015,-0.229,0.0255,0.026,0.2045
-0.682,-0.481,0.201,0.582,-0.4415,-0.14,-0.027,-0.4275,-0.8615,-1.27,-0.7685,-0.255,-0.0015,-0.0035,0.2395
-0.6795,-0.4975,0.182,0.5885,-0.4305,-0.1575,-0.013,-0.4215,-0.9005,-1.3215,-0.8155,-0.2755,-0.023,-0.013,0.2645
-0.687,-0.5205,0.1665,0.6035,-0.4265,-0.1765,0.0005,-0.438,-0.9475,-1.368,-0.855,-0.2865,-0.0395,-0.02,0.2845
-0.697,-0.5495,0.147,0.6235,-0.422,-0.2005,0.019,-0.473,-0.9995,-1.4075,-0.8895,-0.3005,-0.0575,-0.0395,0.308
-0.6935,-0.572,0.1215,0.633,-0.4075,-0.225,0.033,-0.4925,-1.035,-1.4385,-0.918,-0.31,-0.0685,-0.0485,0.336
-0.695,-0.5915,0.1035,0.6435,-0.399,-0.2435,0.046,-0.517,-1.088,-1.485,-0.9705,-0.3405,-0.098,-0.0585,0.362
-0.703,-0.603,0.0995,0.653,-0.4015,-0.251,0.0605,-0.531,-1.106,-1.5015,-0.999,-0.365,-0.1195,-0.064,0.373
-0.72,-0.615,0.105,0.6675,-0.4125,-0.2545,0.08,-0.5425,-1.119,-1.507,-1.022,-0.3985,-0.1475,-0.066,0.3825
-0.7325,-0.6355,0.0975,0.684,-0.415,-0.2685,0.1035,-0.5775,-1.1515,-1.5305,-1.0695,-0.461,-0.2025,-0.082,0.404
-0.734,-0.6525,0.082,0.6935,-0.4085,-0.2845,0.117,-0.5945,-1.14,-1.5185,-1.082,-0.4925,-0.2255,-0.0855,0.4085
-0.736,-0.672,0.0635,0.704,-0.4,-0.304,0.1345,-0.597,-1.127,-1.503,-1.088,-0.519,-0.243,-0.0975,0.3985
-0.7495,-0.6905,0.059,0.72,-0.4045,-0.315,0.155,-0.6035,-1.125,-1.491,-1.0875,-0.5325,-0.255,-0.1155,0.4025
-0.76,-0.695,0.065,0.7275,-0.4125,-0.3145,0.1675,-0.6135,-1.123,-1.4795,-1.0845,-0.541,-0.262,-0.115,0.417
-0.7465,-0.6895,0.0575,0.718,-0.402,-0.3155,0.166,-0.655,-1.1615,-1.507,-1.1125,-0.574,-0.2855,-0.1025,0.4385
-0.7455,-0.681,0.0645,0.713,-0.405,-0.3075,0.1595,-0.7245,-1.2185,-1.535,-1.133,-0.5935,-0.3035,-0.099,0.4645
-0.771,-0.6825,0.0885,0.7265,-0.4295,-0.2965,0.1645,-0.788,-1.258,-1.5415,-1.136,-0.602,-0.319,-0.1145,0.4905
-0.7945,-0.693,0.1015,0.744,-0.448,-0.2955,0.166,-0.831,-1.2785,-1.54,-1.138,-0.6165,-0.336,-0.1115,0.517
-0.7965,-0.715,0.0815,0.7555,-0.439,-0.316,0.164,-0.8725,-1.2985,-1.535,-1.135,-0.6285,-0.3435,-0.11,0.544
-0.7995,-0.7495,0.0505,0.7745,-0.425,-0.349,0.161,-0.9395,-1.319,-1.523,-1.126,-0.637,-0.349,-0.133,0.563
-0.789,-0.7825,0.007,0.7855,-0.398,-0.3875,0.1575,-0.9875,-1.3085,-1.484,-1.0945,-0.6255,-0.335,-0.1655,0.5675
-0.759,-0.8215,-0.0625,0.79,-0.348,-0.4415,0.159,-0.994,-1.2695,-1.4275,-1.0405,-0.591,-0.2955,-0.2065,0.567
-0.75,-0.8845,-0.135,0.8175,-0.3075,-0.509,0.1775,-0.975,-1.2155,-1.3655,-0.988,-0.566,-0.2665,-0.267,0.5625
-0.7445,-0.968,-0.2235,0.856,-0.2605,-0.595,0.204,-0.952,-1.1625,-1.3025,-0.938,-0.5465,-0.2415,-0.34,0.554
-0.739,-1.039,-0.3,0.889,-0.2195,-0.669,0.2215,-0.9515,-1.1215,-1.248,-0.8935,-0.536,-0.229,-0.402,0.543
-0.727,-1.0995,-0.373,0.9135,-0.177,-0.736,0.2275,-0.9445,-1.074,-1.193,-0.849,-0.5265,-0.2125,-0.4635,0.527
-0.7035,-1.13,-0.427,0.917,-0.1385,-0.778,0.2155,-0.9345,-1.019,-1.1365,-0.803,-0.505,-0.183,-0.5055,0.5165
-0.69,-1.1325,-0.443,0.9115,-0.1235,-0.7875,0.204,-0.911,-0.961,-1.08,-0.7555,-0.4815,-0.1585,-0.5265,0.5055
-0.6855,-1.1495,-0.4645,0.9175,-0.1105,-0.8065,0.1905,-0.8985,-0.918,-1.039,-0.723,-0.466,-0.134,-0.535,0.502
-0.6705,-1.161,-0.4915,0.916,-0.0895,-0.826,0.1705,-0.8985,-0.885,-1.0105,-0.7035,-0.461,-0.117,-0.5505,0.4995
-0.6495,-1.1715,-0.5225,0.911,-0.064,-0.847,0.1545,-0.885,-0.842,-0.9735,-0.677,-0.4535,-0.0995,-0.5815,0.491
-0.653,-1.179,-0.5265,0.916,-0.0635,-0.8525,0.142,-0.872,-0.805,-0.946,-0.6605,-0.452,-0.0895,-0.5945,0.4845
-0.6465,-1.166,-0.52,0.9065,-0.063,-0.843,0.125,-0.857,-0.77,-0.9205,-0.6455,-0.449,-0.081,-0.592,0.4715
-0.62,-1.147,-0.5275,0.884,-0.0465,-0.837,0.108,-0.8365,-0.734,-0.8955,-0.6305,-0.442,-0.066,-0.5915,0.463
-0.6045,-1.122,-0.518,0.8635,-0.043,-0.8195,0.091,-0.8165,-0.7075,-0.8825,-0.627,-0.4435,-0.0575,-0.5845,0.461
-0.582,-1.099,-0.5175,0.8405,-0.0325,-0.8075,0.0685,-0.807,-0.694,-0.879,-0.629,-0.4525,-0.052,-0.567,0.451
-0.5795,-1.0815,-0.502,0.8305,-0.039,-0.791,0.0675,-0.7755,-0.6575,-0.855,-0.6085,-0.442,-0.0415,-0.554,0.4385
-0.5815,-1.0605,-0.479,0.821,-0.0515,-0.769,0.061,-0.7395,-0.6185,-0.825,-0.582,-0.426,-0.0285,-0.5415,0.429
-0.542,-1.041,-0.4985,0.7915,-0.0215,-0.7695,0.0345,-0.7305,-0.6135,-0.827,-0.5855,-0.429,-0.021,-0.5315,0.4145
-0.528,-1.019,-0.491,0.7735,-0.0185,-0.7545,0.007,-0.722,-0.6015,-0.814,-0.571,-0.414,-0.0045,-0.517,0.4055
-0.5325,-0.994,-0.4615,0.7635,-0.0355,-0.727,-0.0215,-0.707,-0.5825,-0.7955,-0.5525,-0.397,0.0135,-0.497,0.399
-0.523,-0.9725,-0.449,0.748,-0.037,-0.7105,-0.0475,-0.6815,-0.5585,-0.7815,-0.5435,-0.3875,0.0295,-0.479,0.3905
-0.5185,-0.9505,-0.432,0.7345,-0.0435,-0.691,-0.0705,-0.6525,-0.5255,-0.753,-0.521,-0.37,0.0505,-0.4575,0.3815
-0.4955,-0.9215,-0.426,0.7085,-0.0345,-0.673,-0.091,-0.6265,-0.492,-0.724,-0.4955,-0.3485,0.073,-0.445,0.369
-0.468,-0.8935,-0.426,0.681,-0.021,-0.659,-0.107,-0.58,-0.437,-0.6735,-0.4485,-0.317,0.1015,-0.429,0.347
