i,ii,iii,avr,avl,avf,v1,v2,v3,v4,v5,v6,vx,vy,vz
-0.6795,-0.016,0.6635,0.3475,-0.6715,0.3235,0.6855,0.464,0.342,0.2845,0.1845,-0.3085,0.0365,1.006,-0.3025
-0.6735,-0.019,0.655,0.346,-0.664,0.3175,0.689,0.4735,0.3525,0.296,0.1905,-0.304,0.0385,1.023,-0.3045
-0.6915,-0.032,0.6595,0.3615,-0.6755,0.3135,0.7035,0.4705,0.354,0.296,0.1885,-0.3095,0.0295,0.994,-0.3165
-0.702,-0.029,0.6735,0.365,-0.6875,0.322,0.706,0.481,0.3645,0.3045,0.1935,-0.3075,0.0295,0.9935,-0.323
-0.69,-0.016,0.674,0.3525,-0.682,0.329,0.709,0.4815,0.3685,0.3075,0.195,-0.3095,0.034,1.006,-0.3235
-0.7055,-0.023,0.682,0.364,-0.694,0.3295,0.6855,0.4825,0.3725,0.31,0.1945,-0.311,0.03,0.9875,-0.3245
-0.6785,-0.0125,0.6665,0.3455,-0.6725,0.3265,0.701,0.493,0.383,0.317,0.1985,-0.3095,0.0375,0.9915,-0.3315
-0.6695,-0.0005,0.669,0.3345,-0.6695,0.334,0.7185,0.51,0.3975,0.329,0.2075,-0.302,0.049,1.0165,-0.3345
-0.692,-0.0115,0.6805,0.3515,-0.686,0.334,0.71,0.5055,0.3975,0.3285,0.205,-0.3055,0.0415,1.011,-0.338
-0.7,-0.0155,0.6845,0.3575,-0.6925,0.3345,0.719,0.5115,0.405,0.3335,0.208,-0.306,0.036,1.012,-0.345
-0.6905,-0.0075,0.683,0.349,-0.687,0.3375,0.7205,0.5235,0.4195,0.347,0.218,-0.2965,0.0505,1.0185,-0.3455
-0.679,-0.003,0.6765,0.3405,-0.678,0.3365,0.7415,0.5285,0.4255,0.3485,0.218,-0.2995,0.051,1.028,-0.3495
-0.6855,-0.008,0.678,0.3465,-0.682,0.335,0.729,0.5325,0.4315,0.3535,0.221,-0.2975,0.0475,1.0175,-0.348
-0.702,-0.0185,0.6835,0.36,-0.693,0.3325,0.7295,0.5325,0.4335,0.3555,0.2195,-0.301,0.0405,1.0175,-0.354
-0.6985,-0.017,0.682,0.3575,-0.6905,0.3325,0.7405,0.5405,0.4425,0.3615,0.224,-0.297,0.0465,1.0255,-0.3605
-0.691,-0.0145,0.677,0.3525,-0.684,0.331,0.729,0.5415,0.4465,0.365,0.2285,-0.295,0.051,1.0185,-0.361
-0.7,-0.0125,0.6875,0.3555,-0.6935,0.337,0.74,0.5485,0.4535,0.369,0.229,-0.299,0.045,1.031,-0.366
-0.6915,-0.013,0.6785,0.352,-0.685,0.333,0.742,0.555,0.4605,0.375,0.2305,-0.2965,0.052,1.0295,-0.3725
-0.712,-0.017,0.695,0.364,-0.7035,0.3385,0.7535,0.5645,0.473,0.3855,0.239,-0.29,0.0525,1.0235,-0.3785
-0.7115,0.0,0.7115,0.3555,-0.7115,0.3555,0.7465,0.58,0.49,0.3995,0.251,-0.2805,0.0615,1.013,-0.38
-0.7225,0.0015,0.724,0.3605,-0.723,0.3625,0.753,0.5795,0.4915,0.403,0.2525,-0.284,0.057,1.003,-0.3865
-0.7425,-0.008,0.734,0.375,-0.7385,0.363,0.7615,0.5845,0.4985,0.4085,0.254,-0.284,0.0525,0.995,-0.3945
-0.723,-0.003,0.7205,0.3625,-0.722,0.3585,0.7485,0.583,0.5015,0.408,0.2535,-0.285,0.062,1.0085,-0.398
-0.7265,0.0045,0.731,0.3605,-0.7285,0.3675,0.7445,0.5745,0.508,0.4155,0.2585,-0.2825,0.0635,1.0305,-0.3965
-0.704,0.013,0.7175,0.345,-0.7105,0.365,0.751,0.5935,0.5145,0.421,0.261,-0.282,0.0705,1.0485,-0.404
-0.7055,0.015,0.7205,0.345,-0.713,0.3675,0.7705,0.6095,0.525,0.4295,0.267,-0.277,0.0735,1.0565,-0.4145
-0.731,0.005,0.736,0.3625,-0.7335,0.3705,0.7735,0.619,0.541,0.443,0.276,-0.2695,0.07,1.0425,-0.4175
-0.731,-0.011,0.72,0.371,-0.7255,0.354,0.7645,0.6125,0.535,0.438,0.269,-0.2775,0.0675,1.0095,-0.417
-0.756,-0.024,0.7325,0.39,-0.744,0.354,0.7645,0.61,0.543,0.4475,0.275,-0.2725,0.0645,0.994,-0.419
-0.7585,-0.0285,0.73,0.3935,-0.744,0.3505,0.782,0.625,0.5565,0.458,0.282,-0.268,0.0655,1.02,-0.4275
-0.7485,-0.0295,0.719,0.389,-0.7335,0.3445,0.784,0.634,0.5665,0.466,0.2855,-0.265,0.0695,1.014,-0.4325
-0.761,-0.033,0.728,0.397,-0.7445,0.3475,0.7885,0.6455,0.578,0.474,0.293,-0.262,0.0675,1.017,-0.4375
-0.7615,-0.0325,0.729,0.397,-0.7455,0.348,0.7875,0.6465,0.5805,0.475,0.2935,-0.264,0.067,1.014,-0.4395
-0.7485,-0.0265,0.722,0.387,-0.7355,0.348,0.768,0.655,0.5925,0.4855,0.3035,-0.254,0.0755,1.024,-0.4415
-0.7315,-0.026,0.706,0.3785,-0.7185,0.34,0.781,0.656,0.5965,0.4895,0.3055,-0.2545,0.0815,1.0175,-0.447
-0.7345,-0.0205,0.7145,0.377,-0.7245,0.347,0.803,0.6585,0.6045,0.498,0.3095,-0.253,0.0855,0.9865,-0.4505
-0.734,-0.0165,0.7175,0.375,-0.726,0.3505,0.7975,0.669,0.6145,0.5065,0.3175,-0.248,0.089,1.0265,-0.4545
-0.738,-0.0195,0.7185,0.3785,-0.728,0.3495,0.8015,0.6695,0.6155,0.5075,0.316,-0.251,0.0855,1.0315,-0.46
-0.7465,-0.0145,0.732,0.38,-0.7395,0.3585,0.807,0.68,0.629,0.5185,0.3235,-0.2455,0.0895,1.034,-0.4655
-0.7625,-0.03,0.733,0.396,-0.7475,0.3515,0.806,0.6785,0.6315,0.5215,0.322,-0.2485,0.082,1.0255,-0.47
-0.7715,-0.0305,0.741,0.4005,-0.756,0.355,0.8015,0.6805,0.636,0.5255,0.323,-0.2495,0.0785,1.005,-0.468
-0.76,-0.0185,0.7415,0.389,-0.751,0.3615,0.8055,0.694,0.65,0.54,0.3365,-0.239,0.0905,1.008,-0.4745
-0.764,-0.012,0.752,0.388,-0.758,0.37,0.827,0.71,0.665,0.555,0.349,-0.2275,0.0995,1.016,-0.483
-0.76,-0.0045,0.7555,0.382,-0.758,0.3755,0.8205,0.713,0.6705,0.559,0.352,-0.2275,0.1025,1.025,-0.483
-0.769,-0.01,0.7585,0.3895,-0.764,0.374,0.826,0.716,0.675,0.5635,0.3525,-0.2295,0.0985,1.0175,-0.49
-0.7495,-0.0005,0.749,0.375,-0.749,0.374,0.8275,0.7235,0.683,0.5725,0.3575,-0.2235,0.1095,1.0345,-0.493
-0.748,-0.009,0.739,0.3785,-0.7435,0.365,0.826,0.7185,0.6825,0.5715,0.3545,-0.229,0.105,1.017,-0.498
-0.768,-0.013,0.7545,0.3905,-0.761,0.3705,0.833,0.729,0.6955,0.582,0.362,-0.224,0.102,1.0025,-0.5035
-0.751,-0.0085,0.7425,0.3795,-0.747,0.367,0.826,0.7305,0.7025,0.5895,0.366,-0.221,0.109,1.0215,-0.507
-0.7505,-0.0155,0.735,0.3825,-0.7425,0.3595,0.827,0.7325,0.7085,0.5945,0.3695,-0.221,0.1115,1.0155,-0.5105
-0.7515,-0.012,0.7395,0.3815,-0.7455,0.3635,0.835,0.75,0.7245,0.607,0.3825,-0.2115,0.1195,1.0195,-0.5155
-0.773,-0.012,0.761,0.3925,-0.767,0.3745,0.8555,0.747,0.727,0.6105,0.382,-0.2135,0.11,1.03,-0.5255
-0.7675,-0.0005,0.7665,0.384,-0.767,0.3825,0.843,0.7435,0.7295,0.6125,0.382,-0.2155,0.1125,1.0205,-0.5235
-0.7535,0.0035,0.757,0.375,-0.7555,0.38,0.829,0.744,0.7295,0.6125,0.3815,-0.218,0.1165,1.0205,-0.525
-0.777,0.015,0.792,0.3805,-0.7845,0.4035,0.846,0.758,0.746,0.6275,0.396,-0.205,0.1225,1.035,-0.531
-0.7775,0.0275,0.805,0.3745,-0.791,0.416,0.8545,0.773,0.762,0.642,0.409,-0.194,0.1315,1.048,-0.536
-0.7835,0.0165,0.8,0.383,-0.792,0.408,0.855,0.7785,0.7665,0.645,0.4095,-0.1955,0.129,1.0465,-0.5455
-0.7935,0.01,0.803,0.3915,-0.7985,0.4065,0.8475,0.775,0.771,0.65,0.4135,-0.1955,0.1275,1.0295,-0.5455
-0.769,0.0115,0.7805,0.3785,-0.7745,0.3955,0.8415,0.764,0.769,0.6505,0.411,-0.1985,0.1325,1.0245,-0.542
-0.744,0.017,0.761,0.363,-0.7525,0.3885,0.8435,0.772,0.776,0.6545,0.413,-0.198,0.144,1.03,-0.5475
-0.7655,0.0125,0.7785,0.376,-0.7725,0.3955,0.8515,0.775,0.781,0.66,0.4175,-0.1965,0.14,1.0205,-0.5525
-0.768,0.019,0.787,0.3745,-0.7775,0.4025,0.858,0.787,0.7945,0.6725,0.428,-0.186,0.1455,1.0235,-0.554
-0.7365,0.0205,0.757,0.3575,-0.7465,0.3885,0.854,0.79,0.7965,0.6735,0.428,-0.188,0.15,1.039,-0.5585
-0.7515,0.0065,0.7585,0.372,-0.755,0.3825,0.8585,0.7895,0.8005,0.678,0.43,-0.187,0.1445,1.034,-0.5645
-0.768,0.003,0.771,0.3825,-0.7695,0.3865,0.86,0.8045,0.819,0.694,0.445,-0.174,0.1495,1.028,-0.57
-0.7625,0.0015,0.7645,0.3805,-0.764,0.383,0.8615,0.81,0.825,0.7025,0.4525,-0.17,0.155,1.024,-0.57
-0.758,-0.0025,0.756,0.38,-0.757,0.3765,0.8685,0.814,0.8325,0.7095,0.458,-0.1655,0.16,1.0135,-0.5715
-0.7585,-0.008,0.7505,0.383,-0.7545,0.371,0.8705,0.8145,0.8375,0.7145,0.463,-0.162,0.159,1.0095,-0.5775
-0.766,-0.0105,0.7555,0.388,-0.761,0.3725,0.8755,0.822,0.846,0.722,0.47,-0.157,0.162,1.0065,-0.5815
-0.758,-0.001,0.757,0.3795,-0.7575,0.3775,0.876,0.829,0.8575,0.735,0.4815,-0.147,0.17,1.0205,-0.5865
-0.751,0.002,0.753,0.374,-0.752,0.3775,0.873,0.8295,0.859,0.7375,0.4825,-0.147,0.1725,1.0085,-0.5875
-0.763,-0.0005,0.7625,0.3815,-0.7625,0.3805,0.8775,0.8335,0.862,0.7405,0.4855,-0.147,0.17,1.0105,-0.5935
-0.7715,0.009,0.781,0.381,-0.776,0.395,0.8835,0.837,0.8725,0.753,0.498,-0.137,0.177,1.0475,-0.596
-0.748,0.0225,0.7705,0.3625,-0.7595,0.3965,0.875,0.841,0.8775,0.759,0.504,-0.1305,0.19,1.0325,-0.597
-0.759,0.016,0.775,0.3715,-0.767,0.395,0.875,0.839,0.877,0.7595,0.5045,-0.133,0.181,1.0185,-0.6045
-0.773,0.018,0.791,0.377,-0.782,0.4045,0.871,0.838,0.8805,0.766,0.5105,-0.1285,0.187,1.0325,-0.6015
-0.749,0.0295,0.7785,0.3595,-0.764,0.4035,0.867,0.839,0.883,0.7695,0.515,-0.124,0.2005,1.046,-0.602
-0.762,0.0255,0.787,0.368,-0.7745,0.406,0.8825,0.846,0.8895,0.775,0.52,-0.1205,0.1985,1.0465,-0.606
-0.7815,0.029,0.81,0.376,-0.796,0.419,0.8795,0.8505,0.898,0.7865,0.53,-0.112,0.2,1.047,-0.604
-0.7955,0.03,0.825,0.3825,-0.81,0.427,0.8815,0.8475,0.9025,0.792,0.535,-0.1085,0.1985,1.055,-0.607
-0.7885,0.0315,0.82,0.3785,-0.804,0.4255,0.8795,0.8495,0.906,0.798,0.54,-0.104,0.207,1.051,-0.61
-0.7725,0.037,0.8095,0.3675,-0.791,0.423,0.8735,0.8495,0.906,0.8015,0.5435,-0.0995,0.214,1.041,-0.611
-0.768,0.0395,0.8075,0.364,-0.788,0.423,0.884,0.851,0.91,0.806,0.55,-0.0955,0.218,1.0425,-0.612
-0.758,0.04,0.798,0.359,-0.778,0.4185,0.87,0.848,0.9095,0.807,0.5515,-0.0955,0.2205,1.0505,-0.612
-0.7425,0.047,0.7895,0.3475,-0.766,0.418,0.8665,0.8505,0.9155,0.8135,0.5595,-0.087,0.229,1.0685,-0.6135
-0.7455,0.037,0.7825,0.354,-0.764,0.4095,0.8795,0.856,0.9205,0.8205,0.566,-0.0815,0.232,1.063,-0.621
-0.761,0.025,0.786,0.3675,-0.7735,0.405,0.8745,0.8535,0.92,0.8225,0.5675,-0.08,0.2275,1.034,-0.621
-0.753,0.031,0.784,0.361,-0.7685,0.407,0.882,0.8595,0.927,0.8325,0.5795,-0.068,0.2375,1.037,-0.62
-0.7565,0.0275,0.7835,0.3645,-0.7705,0.4055,0.881,0.8525,0.9245,0.83,0.579,-0.0705,0.235,1.053,-0.6205
-0.753,0.0275,0.78,0.3625,-0.7665,0.4035,0.858,0.843,0.9215,0.829,0.5785,-0.0705,0.235,1.0565,-0.612
-0.7185,0.0445,0.763,0.3365,-0.7405,0.4035,0.867,0.863,0.9385,0.846,0.598,-0.052,0.2585,1.08,-0.615
-0.7225,0.038,0.7605,0.342,-0.7415,0.399,0.869,0.8625,0.937,0.8455,0.5985,-0.051,0.259,1.064,-0.6165
-0.748,0.0165,0.7645,0.3655,-0.7565,0.3905,0.8655,0.845,0.925,0.836,0.5895,-0.0595,0.245,1.0295,-0.616
-0.7395,0.0245,0.764,0.3575,-0.752,0.394,0.876,0.8455,0.93,0.8425,0.5965,-0.0525,0.2525,1.051,-0.618
-0.7385,0.032,0.7705,0.3535,-0.7545,0.401,0.8665,0.8445,0.929,0.846,0.6015,-0.0465,0.256,1.056,-0.615
-0.7275,0.0365,0.7635,0.3455,-0.7455,0.3995,0.8535,0.838,0.9245,0.847,0.605,-0.0425,0.2595,1.059,-0.6115
-0.715,0.0455,0.7605,0.3345,-0.7375,0.403,0.856,0.841,0.929,0.8525,0.6115,-0.035,0.2725,1.065,-0.608
-0.764,0.031,0.795,0.3665,-0.7795,0.413,0.8675,0.844,0.9305,0.856,0.615,-0.0315,0.262,1.054,-0.6125
-0.7665,0.026,0.7925,0.37,-0.7795,0.409,0.8665,0.8375,0.9255,0.8555,0.617,-0.028,0.2635,1.048,-0.6105
-0.737,0.0455,0.7825,0.3455,-0.76,0.414,0.8655,0.838,0.9275,0.8605,0.6265,-0.0185,0.2825,1.0575,-0.6065
-0.747,0.044,0.791,0.3515,-0.769,0.4175,0.8605,0.831,0.9205,0.858,0.625,-0.022,0.278,1.0595,-0.606
-0.7455,0.039,0.7845,0.353,-0.765,0.4115,0.857,0.823,0.9145,0.8545,0.622,-0.0235,0.2785,1.057,-0.602
-0.741,0.043,0.784,0.3485,-0.7625,0.4135,0.8505,0.8215,0.914,0.8555,0.6265,-0.0175,0.2815,1.0705,-0.6005
-0.727,0.048,0.775,0.3395,-0.751,0.411,0.8465,0.817,0.9095,0.8545,0.628,-0.0145,0.286,1.074,-0.598
-0.713,0.0675,0.78,0.3225,-0.7465,0.4235,0.8585,0.828,0.92,0.867,0.643,0.0015,0.301,1.105,-0.598
-0.708,0.0695,0.778,0.319,-0.743,0.4235,0.853,0.8245,0.916,0.8665,0.648,0.006,0.3065,1.1135,-0.594
-0.7055,0.0575,0.7635,0.324,-0.7345,0.41,0.8405,0.817,0.9045,0.8575,0.6415,0.001,0.304,1.091,-0.591
-0.69,0.066,0.756,0.3115,-0.723,0.411,0.841,0.8165,0.9045,0.861,0.649,0.0105,0.3125,1.1115,-0.5885
-0.71,0.06,0.77,0.3245,-0.74,0.415,0.837,0.7945,0.8925,0.8555,0.647,0.01,0.3065,1.089,-0.5805
-0.738,0.0415,0.7795,0.348,-0.759,0.4105,0.8295,0.7835,0.882,0.848,0.6405,0.005,0.297,1.0505,-0.577
-0.7275,0.0415,0.769,0.3425,-0.748,0.405,0.836,0.78,0.877,0.844,0.641,0.0085,0.302,1.05,-0.5755
-0.7115,0.05,0.7615,0.3305,-0.737,0.4055,0.8255,0.7685,0.867,0.838,0.638,0.008,0.304,1.0565,-0.5695
-0.699,0.048,0.747,0.325,-0.723,0.397,0.817,0.7545,0.853,0.8275,0.6325,0.004,0.304,1.0565,-0.563
-0.7015,0.049,0.751,0.326,-0.726,0.3995,0.818,0.749,0.846,0.8235,0.6315,0.0045,0.302,1.0685,-0.5595
-0.684,0.063,0.7475,0.3105,-0.7155,0.4045,0.8045,0.747,0.844,0.824,0.636,0.0095,0.3135,1.0765,-0.554
-0.687,0.0625,0.749,0.312,-0.718,0.4055,0.803,0.738,0.834,0.8175,0.6345,0.0125,0.3155,1.054,-0.548
-0.702,0.057,0.759,0.322,-0.73,0.4075,0.805,0.734,0.8275,0.814,0.635,0.0145,0.306,1.066,-0.5475
-0.692,0.0535,0.7455,0.319,-0.7185,0.3995,0.7875,0.7245,0.818,0.808,0.634,0.0165,0.3135,1.078,-0.5385
-0.685,0.0565,0.7415,0.314,-0.7135,0.3985,0.7905,0.7155,0.8065,0.8015,0.632,0.0175,0.3135,1.081,-0.532
-0.6875,0.056,0.744,0.3155,-0.716,0.3995,0.7885,0.705,0.796,0.7945,0.6275,0.0145,0.309,1.076,-0.526
-0.691,0.047,0.738,0.322,-0.7145,0.3925,0.776,0.6915,0.7805,0.782,0.62,0.01,0.308,1.063,-0.519
-0.6805,0.054,0.7345,0.313,-0.7075,0.394,0.7805,0.687,0.7765,0.7805,0.6235,0.0135,0.3105,1.071,-0.5155
-0.6725,0.06,0.7325,0.306,-0.7025,0.396,0.766,0.684,0.7695,0.777,0.624,0.018,0.3145,1.076,-0.509
-0.6515,0.07,0.721,0.2905,-0.6865,0.3955,0.762,0.6795,0.761,0.7715,0.6235,0.022,0.322,1.107,-0.504
-0.6565,0.068,0.7245,0.294,-0.6905,0.396,0.7635,0.667,0.75,0.7625,0.619,0.019,0.3175,1.0965,-0.496
-0.684,0.0525,0.736,0.3155,-0.71,0.3945,0.762,0.649,0.7305,0.747,0.6055,0.009,0.3015,1.066,-0.4915
-0.68,0.055,0.735,0.3125,-0.7075,0.3945,0.757,0.6385,0.72,0.741,0.6045,0.011,0.3055,1.0775,-0.4825
-0.6725,0.057,0.7295,0.3075,-0.701,0.393,0.742,0.6355,0.7115,0.7345,0.605,0.0145,0.3115,1.074,-0.4725
-0.6605,0.0605,0.721,0.2995,-0.691,0.3905,0.7455,0.6255,0.6955,0.721,0.5955,0.0075,0.3065,1.0835,-0.47
-0.656,0.0595,0.715,0.298,-0.6855,0.387,0.7375,0.6135,0.683,0.71,0.591,0.0055,0.3035,1.0925,-0.4615
-0.651,0.0635,0.7145,0.2935,-0.683,0.389,0.7455,0.6125,0.679,0.708,0.594,0.0135,0.311,1.1045,-0.4565
-0.6435,0.067,0.7105,0.288,-0.677,0.3885,0.731,0.5945,0.6585,0.6915,0.5825,0.006,0.3045,1.114,-0.4435
-0.6445,0.064,0.7085,0.29,-0.6765,0.386,0.6985,0.575,0.6385,0.677,0.5735,-0.0005,0.296,1.1025,-0.4305
-0.643,0.068,0.711,0.2875,-0.677,0.3895,0.705,0.5675,0.632,0.672,0.5725,0.002,0.3045,1.0905,-0.422
-0.6465,0.064,0.7105,0.291,-0.6785,0.387,0.7055,0.551,0.617,0.657,0.564,-0.0035,0.2995,1.073,-0.4135
-0.634,0.071,0.7055,0.281,-0.67,0.3885,0.699,0.5455,0.6085,0.6525,0.564,-0.002,0.303,1.0905,-0.404
-0.634,0.0715,0.7055,0.281,-0.6695,0.388,0.694,0.542,0.5965,0.641,0.557,-0.0045,0.3,1.1035,-0.3945
-0.6405,0.062,0.7025,0.289,-0.6715,0.382,0.6915,0.524,0.582,0.628,0.5475,-0.009,0.2915,1.0965,-0.39
-0.64,0.0595,0.6995,0.29,-0.67,0.379,0.6805,0.512,0.5705,0.6205,0.5435,-0.01,0.2885,1.083,-0.381
-0.643,0.065,0.7075,0.2885,-0.675,0.386,0.684,0.5125,0.558,0.6095,0.538,-0.0135,0.281,1.0895,-0.376
-0.6285,0.0675,0.696,0.2805,-0.662,0.3815,0.6745,0.5025,0.544,0.5965,0.53,-0.0185,0.2825,1.104,-0.3685
-0.6165,0.0625,0.6795,0.277,-0.648,0.371,0.6565,0.4875,0.5275,0.5815,0.5185,-0.0265,0.277,1.0965,-0.361
-0.5975,0.065,0.6625,0.266,-0.63,0.3635,0.6625,0.476,0.513,0.5685,0.5095,-0.031,0.2745,1.1015,-0.357
-0.599,0.047,0.6465,0.2755,-0.6225,0.3465,0.6355,0.4545,0.4905,0.548,0.4945,-0.0415,0.2625,1.0815,-0.3465
-0.591,0.045,0.6365,0.2725,-0.614,0.341,0.6385,0.4465,0.4785,0.538,0.4895,-0.0445,0.259,1.0765,-0.341
-0.575,0.0535,0.628,0.2605,-0.6015,0.3405,0.6515,0.446,0.475,0.536,0.491,-0.04,0.266,1.0925,-0.334
-0.585,0.045,0.6305,0.2695,-0.608,0.3375,0.643,0.4345,0.459,0.522,0.4815,-0.0475,0.259,1.0895,-0.326
-0.601,0.04,0.6415,0.2805,-0.6215,0.3405,0.6465,0.4275,0.451,0.5135,0.4765,-0.048,0.253,1.089,-0.3205
-0.613,0.035,0.648,0.289,-0.6305,0.3415,0.6265,0.4125,0.4345,0.4995,0.4645,-0.055,0.2435,1.0885,-0.311
-0.5915,0.0475,0.639,0.272,-0.615,0.343,0.6205,0.4015,0.4215,0.4865,0.4545,-0.0615,0.2465,1.0785,-0.305
-0.5835,0.056,0.6395,0.2635,-0.6115,0.3475,0.6065,0.4005,0.4175,0.4835,0.457,-0.056,0.252,1.0825,-0.2945
-0.5765,0.0715,0.6475,0.252,-0.612,0.3595,0.6225,0.3945,0.4065,0.475,0.452,-0.0575,0.253,1.11,-0.2855
-0.5865,0.058,0.6445,0.264,-0.6155,0.351,0.6295,0.373,0.3855,0.4555,0.438,-0.069,0.236,1.105,-0.2785
-0.569,0.046,0.615,0.261,-0.592,0.33,0.5965,0.355,0.3635,0.434,0.4225,-0.079,0.2305,1.088,-0.2675
-0.512,0.0755,0.588,0.218,-0.55,0.3315,0.597,0.356,0.356,0.428,0.4195,-0.0775,0.25,1.1115,-0.257
-0.545,0.0645,0.61,0.24,-0.5775,0.337,0.5845,0.347,0.345,0.4195,0.413,-0.082,0.235,1.105,-0.2515
-0.569,0.0595,0.6285,0.2545,-0.5985,0.3435,0.5835,0.3395,0.3355,0.411,0.4085,-0.084,0.2275,1.0845,-0.2455
-0.553,0.063,0.616,0.245,-0.5845,0.339,0.582,0.329,0.3235,0.3995,0.401,-0.0885,0.2285,1.085,-0.235
-0.567,0.048,0.615,0.259,-0.591,0.3315,0.576,0.321,0.3125,0.3885,0.393,-0.093,0.219,1.079,-0.229
-0.5555,0.0545,0.61,0.25,-0.583,0.332,0.575,0.3195,0.306,0.384,0.389,-0.0935,0.2245,1.0825,-0.2195
-0.541,0.0615,0.6025,0.2395,-0.572,0.3315,0.571,0.3055,0.2935,0.373,0.382,-0.0965,0.2225,1.1085,-0.2105
-0.5495,0.0545,0.604,0.2475,-0.5765,0.329,0.5735,0.292,0.2805,0.3595,0.374,-0.1015,0.2105,1.1015,-0.204
-0.539,0.0585,0.5975,0.24,-0.5685,0.3275,0.5685,0.2925,0.2715,0.349,0.366,-0.1085,0.21,1.096,-0.201
-0.5285,0.0635,0.5915,0.2325,-0.56,0.327,0.5665,0.287,0.2595,0.3405,0.359,-0.111,0.212,1.1115,-0.196
-0.541,0.0465,0.5875,0.247,-0.564,0.317,0.5535,0.272,0.244,0.3265,0.349,-0.118,0.201,1.0765,-0.185
-0.5435,0.0395,0.583,0.2515,-0.5635,0.311,0.559,0.264,0.2345,0.313,0.3385,-0.125,0.192,1.069,-0.181
-0.5305,0.046,0.5765,0.242,-0.5535,0.311,0.555,0.2535,0.2215,0.3025,0.3285,-0.1325,0.191,1.086,-0.1745
-0.5245,0.045,0.5695,0.2395,-0.547,0.307,0.5395,0.2435,0.2115,0.293,0.324,-0.1365,0.1885,1.0835,-0.167
-0.5245,0.045,0.5695,0.239,-0.547,0.307,0.5425,0.237,0.2025,0.281,0.314,-0.1425,0.1835,1.0865,-0.163
-0.529,0.039,0.568,0.2445,-0.5485,0.3035,0.5345,0.2285,0.1905,0.27,0.305,-0.1495,0.175,1.0855,-0.154
-0.5245,0.035,0.5595,0.2445,-0.542,0.297,0.543,0.222,0.1845,0.263,0.3005,-0.15,0.1725,1.0945,-0.1495
-0.5165,0.0405,0.557,0.238,-0.5365,0.2985,0.543,0.219,0.174,0.252,0.289,-0.1575,0.1685,1.101,-0.147
-0.511,0.044,0.555,0.2335,-0.533,0.2995,0.5315,0.209,0.161,0.2405,0.281,-0.164,0.164,1.0935,-0.136
-0.502,0.0455,0.5475,0.228,-0.5245,0.296,0.522,0.1995,0.1495,0.229,0.273,-0.169,0.164,1.105,-0.128
-0.496,0.049,0.5445,0.223,-0.52,0.2965,0.5105,0.198,0.1445,0.2245,0.2695,-0.171,0.1645,1.1225,-0.122
-0.51,0.045,0.555,0.232,-0.5325,0.3,0.518,0.188,0.1345,0.2125,0.259,-0.1795,0.1525,1.0995,-0.1145
-0.5145,0.037,0.5515,0.2385,-0.533,0.294,0.519,0.1755,0.119,0.1975,0.2455,-0.192,0.1425,1.0735,-0.11
-0.5095,0.0435,0.5535,0.233,-0.5315,0.2985,0.5195,0.172,0.1165,0.1935,0.2445,-0.19,0.1445,1.08,-0.103
-0.517,0.047,0.564,0.2345,-0.5405,0.3055,0.5165,0.169,0.1085,0.1865,0.2405,-0.192,0.1385,1.085,-0.098
-0.5175,0.041,0.5585,0.238,-0.538,0.2995,0.4945,0.153,0.091,0.17,0.227,-0.2045,0.127,1.084,-0.0935
-0.517,0.0385,0.5555,0.239,-0.5365,0.2965,0.494,0.148,0.0805,0.16,0.2185,-0.21,0.1255,1.0805,-0.092
-0.502,0.044,0.546,0.2285,-0.524,0.295,0.5075,0.149,0.078,0.1575,0.2175,-0.2095,0.1285,1.0835,-0.094
-0.5015,0.0465,0.548,0.227,-0.525,0.297,0.4975,0.141,0.072,0.1495,0.212,-0.2135,0.122,1.098,-0.089
-0.4925,0.0575,0.55,0.2175,-0.5215,0.3035,0.4835,0.1385,0.065,0.146,0.2085,-0.2145,0.124,1.1195,-0.0775
-0.498,0.0535,0.5515,0.222,-0.5245,0.302,0.492,0.1385,0.0625,0.1385,0.202,-0.219,0.1185,1.1075,-0.075
-0.522,0.0415,0.564,0.24,-0.543,0.3025,0.4995,0.1365,0.058,0.1315,0.1965,-0.2225,0.1115,1.078,-0.077
-0.5025,0.0555,0.5575,0.223,-0.53,0.3065,0.4975,0.1305,0.05,0.125,0.1915,-0.2265,0.1145,1.09,-0.072
-0.512,0.049,0.561,0.231,-0.5365,0.3045,0.495,0.1275,0.044,0.1175,0.1835,-0.232,0.105,1.093,-0.066
-0.5085,0.041,0.55,0.2335,-0.5295,0.295,0.4845,0.1175,0.0325,0.104,0.1745,-0.2405,0.0995,1.092,-0.062
-0.4815,0.048,0.5295,0.2165,-0.5055,0.2885,0.484,0.1125,0.0255,0.096,0.1685,-0.2455,0.102,1.1105,-0.06
-0.5,0.04,0.54,0.2295,-0.52,0.29,0.489,0.1105,0.022,0.093,0.1655,-0.247,0.09,1.0975,-0.0555
-0.5005,0.0335,0.534,0.2335,-0.517,0.2835,0.487,0.097,0.0085,0.076,0.151,-0.261,0.0785,1.078,-0.051
-0.4865,0.0385,0.525,0.224,-0.506,0.2815,0.477,0.0925,0.0025,0.07,0.1435,-0.265,0.081,1.075,-0.049
-0.4795,0.0425,0.522,0.218,-0.5005,0.282,0.472,0.0895,0.001,0.067,0.1425,-0.2635,0.0805,1.079,-0.0445
-0.4785,0.0425,0.5215,0.2175,-0.5,0.282,0.478,0.0885,-0.003,0.063,0.139,-0.268,0.0795,1.0865,-0.0425
-0.4775,0.0515,0.529,0.213,-0.503,0.29,0.475,0.0895,-0.0005,0.0635,0.1405,-0.2655,0.08,1.1085,-0.04
-0.4815,0.046,0.5275,0.2175,-0.504,0.2865,0.476,0.0845,-0.0085,0.0545,0.133,-0.272,0.073,1.0955,-0.0375
-0.5045,0.0315,0.536,0.2365,-0.5205,0.2835,0.48,0.0785,-0.02,0.045,0.1225,-0.282,0.0615,1.063,-0.037
-0.4975,0.038,0.5355,0.2295,-0.5165,0.2865,0.4755,0.079,-0.0175,0.0455,0.1245,-0.2805,0.064,1.0865,-0.031
-0.49,0.0445,0.5345,0.2225,-0.512,0.289,0.477,0.078,-0.0205,0.043,0.1215,-0.2815,0.067,1.0865,-0.0275
-0.503,0.038,0.541,0.232,-0.522,0.2895,0.483,0.073,-0.0265,0.036,0.1155,-0.287,0.059,1.08,-0.03
-0.483,0.045,0.528,0.2185,-0.5055,0.286,0.481,0.076,-0.0235,0.0375,0.118,-0.285,0.067,1.097,-0.027
-0.473,0.0495,0.5225,0.2115,-0.4975,0.286,0.469,0.071,-0.026,0.0355,0.117,-0.285,0.0705,1.093,-0.022
-0.484,0.0445,0.5285,0.2195,-0.506,0.286,0.4635,0.0695,-0.031,0.029,0.111,-0.291,0.0615,1.097,-0.0205
-0.4785,0.0475,0.526,0.215,-0.5025,0.2865,0.4625,0.07,-0.03,0.029,0.1085,-0.292,0.062,1.1015,-0.0195
-0.4825,0.044,0.5265,0.219,-0.5045,0.285,0.465,0.0605,-0.0375,0.023,0.1045,-0.296,0.0595,1.079,-0.0185
-0.4815,0.0475,0.5285,0.2165,-0.505,0.288,0.4725,0.0595,-0.0405,0.0185,0.102,-0.297,0.059,1.0825,-0.015
-0.489,0.042,0.531,0.223,-0.51,0.286,0.469,0.057,-0.039,0.017,0.097,-0.301,0.0535,1.087,-0.014
-0.497,0.0365,0.534,0.23,-0.5155,0.285,0.4655,0.056,-0.04,0.015,0.095,-0.305,0.0475,1.0845,-0.014
-0.4915,0.042,0.5335,0.2245,-0.5125,0.2875,0.47,0.063,-0.0395,0.015,0.095,-0.3025,0.0495,1.088,-0.0115
-0.4925,0.036,0.529,0.228,-0.511,0.2825,0.474,0.064,-0.042,0.012,0.091,-0.306,0.046,1.082,-0.0125
-0.4855,0.041,0.527,0.222,-0.506,0.284,0.468,0.0585,-0.0445,0.0085,0.089,-0.3095,0.0445,1.097,-0.011
-0.472,0.04,0.512,0.2155,-0.492,0.276,0.4605,0.0475,-0.0565,-0.003,0.0785,-0.319,0.0425,1.0835,-0.0075
-0.466,0.0355,0.501,0.215,-0.4835,0.268,0.4535,0.042,-0.0625,-0.0095,0.0715,-0.325,0.039,1.0765,-0.006
-0.475,0.0405,0.5155,0.217,-0.495,0.2775,0.461,0.049,-0.053,-0.001,0.0795,-0.3175,0.0415,1.0865,-0.006
-0.4825,0.033,0.5155,0.2245,-0.499,0.274,0.4695,0.052,-0.053,-0.0025,0.0765,-0.32,0.0385,1.081,-0.009
-0.4775,0.0325,0.51,0.222,-0.4935,0.271,0.469,0.048,-0.057,-0.006,0.0735,-0.325,0.0365,1.0835,-0.0105
-0.4815,0.0335,0.5155,0.2235,-0.4985,0.274,0.4715,0.0485,-0.0545,-0.0025,0.0755,-0.3215,0.036,1.0785,-0.0135
-0.4935,0.0285,0.522,0.232,-0.508,0.275,0.474,0.0505,-0.053,-0.003,0.075,-0.321,0.032,1.075,-0.0135
-0.498,0.039,0.537,0.229,-0.5175,0.2875,0.4725,0.056,-0.0465,0.0045,0.084,-0.314,0.039,1.089,-0.0095
-0.4965,0.0445,0.541,0.2255,-0.519,0.2925,0.471,0.0565,-0.0455,0.005,0.0835,-0.314,0.04,1.0995,-0.0065
-0.5015,0.0405,0.5415,0.2305,-0.5215,0.291,0.479,0.057,-0.0455,0.004,0.082,-0.3155,0.036,1.1025,-0.0075
-0.4885,0.034,0.523,0.227,-0.506,0.2785,0.469,0.0525,-0.052,-0.0035,0.074,-0.3245,0.0335,1.0955,-0.012
-0.467,0.0385,0.5055,0.214,-0.486,0.272,0.4685,0.043,-0.0595,-0.011,0.0675,-0.3315,0.036,1.0885,-0.0115
-0.4885,0.04,0.5285,0.2235,-0.5085,0.284,0.4735,0.0475,-0.051,-0.003,0.0755,-0.324,0.034,1.092,-0.0085
-0.4835,0.0405,0.5235,0.221,-0.5035,0.2815,0.4625,0.0515,-0.049,0.0,0.0765,-0.3215,0.0375,1.0935,-0.0035
-0.461,0.056,0.517,0.202,-0.489,0.286,0.469,0.0615,-0.0395,0.0085,0.086,-0.3115,0.052,1.122,-0.0025
-0.47,0.0575,0.527,0.206,-0.4985,0.292,0.4745,0.0585,-0.039,0.009,0.086,-0.313,0.046,1.122,-0.007
-0.4835,0.0495,0.533,0.2165,-0.508,0.291,0.4705,0.048,-0.0465,0.0015,0.079,-0.3185,0.0385,1.089,-0.0065
-0.496,0.0535,0.5495,0.221,-0.5225,0.301,0.4765,0.064,-0.036,0.008,0.0875,-0.3105,0.0415,1.1005,-0.0095
-0.486,0.062,0.5475,0.2115,-0.517,0.3045,0.479,0.067,-0.0325,0.011,0.089,-0.3095,0.0455,1.106,-0.009
-0.474,0.0725,0.5465,0.2005,-0.51,0.3095,0.4745,0.0645,-0.0315,0.0135,0.089,-0.307,0.05,1.1025,-0.005
-0.473,0.0785,0.5515,0.197,-0.5125,0.315,0.4825,0.0635,-0.0315,0.0135,0.09,-0.3085,0.0485,1.1175,-0.005
-0.487,0.073,0.5605,0.2065,-0.524,0.3165,0.471,0.0555,-0.0375,0.007,0.0835,-0.3145,0.0415,1.1245,-0.001
-0.482,0.083,0.565,0.1995,-0.5235,0.3235,0.4665,0.0625,-0.033,0.0115,0.0875,-0.31,0.0445,1.1395,-0.002
-0.4665,0.09,0.5565,0.188,-0.5115,0.323,0.4695,0.063,-0.031,0.0145,0.09,-0.309,0.0465,1.159,-0.003
-0.4825,0.083,0.5655,0.1995,-0.524,0.324,0.4565,0.0545,-0.036,0.012,0.087,-0.312,0.0415,1.1455,0.0005
-0.4815,0.0955,0.577,0.1925,-0.5295,0.336,0.4745,0.054,-0.034,0.0145,0.0885,-0.309,0.046,1.1405,0.0
-0.4745,0.102,0.577,0.186,-0.526,0.3395,0.471,0.051,-0.034,0.013,0.089,-0.3105,0.0475,1.155,0.0015
-0.4755,0.106,0.5815,0.1845,-0.5285,0.3435,0.4665,0.051,-0.0345,0.013,0.0895,-0.309,0.05,1.1625,0.0035
-0.486,0.106,0.592,0.19,-0.539,0.349,0.48,0.0535,-0.032,0.015,0.0895,-0.3085,0.0485,1.162,-0.0005
-0.4925,0.0975,0.59,0.1975,-0.5415,0.3435,0.476,0.0565,-0.028,0.02,0.095,-0.306,0.046,1.1455,-0.0015
-0.4815,0.101,0.582,0.19,-0.532,0.3415,0.472,0.059,-0.025,0.0235,0.0985,-0.3015,0.052,1.1565,0.0025
-0.487,0.1015,0.589,0.1925,-0.538,0.345,0.461,0.053,-0.028,0.021,0.0955,-0.3055,0.0455,1.1725,0.004
-0.4805,0.115,0.5955,0.1825,-0.538,0.355,0.4695,0.057,-0.0235,0.028,0.1025,-0.3,0.0525,1.1745,0.0035
-0.4715,0.126,0.5975,0.1725,-0.5345,0.3615,0.4725,0.0615,-0.02,0.0325,0.1065,-0.2965,0.062,1.1785,0.003
-0.4755,0.125,0.6005,0.175,-0.538,0.3625,0.462,0.062,-0.0175,0.033,0.1075,-0.297,0.0605,1.1775,0.0025
-0.474,0.122,0.5955,0.176,-0.5345,0.3585,0.469,0.0625,-0.0175,0.0315,0.106,-0.2985,0.059,1.1675,0.0
-0.4795,0.115,0.594,0.182,-0.5365,0.354,0.47,0.0645,-0.018,0.0315,0.106,-0.299,0.0575,1.157,-0.004
-0.473,0.1165,0.5895,0.178,-0.531,0.3525,0.4725,0.068,-0.012,0.0365,0.1105,-0.293,0.0645,1.152,-0.0025
-0.461,0.1185,0.5795,0.171,-0.52,0.349,0.4655,0.065,-0.014,0.0365,0.1115,-0.292,0.0655,1.145,0.001
-0.467,0.1225,0.59,0.172,-0.5285,0.356,0.4615,0.068,-0.0095,0.0405,0.1185,-0.2865,0.0675,1.1715,0.0045
-0.481,0.1215,0.6025,0.1795,-0.5415,0.362,0.463,0.0765,-0.0015,0.047,0.1255,-0.2805,0.071,1.18,0.004
-0.4825,0.1225,0.6055,0.1795,-0.544,0.364,0.459,0.08,0.0005,0.051,0.13,-0.2755,0.0775,1.149,0.004
-0.4795,0.1295,0.6085,0.1745,-0.544,0.3685,0.4525,0.072,-0.001,0.052,0.132,-0.273,0.0785,1.1495,0.009
-0.477,0.13,0.6065,0.173,-0.542,0.368,0.4465,0.066,-0.002,0.05,0.13,-0.2745,0.076,1.1585,0.008
-0.455,0.141,0.596,0.1565,-0.5255,0.3685,0.434,0.064,-0.0035,0.0505,0.1325,-0.2715,0.087,1.1675,0.0145
-0.4305,0.1455,0.5765,0.1425,-0.5035,0.361,0.406,0.0395,-0.0205,0.0395,0.122,-0.282,0.0855,1.1605,0.024
-0.4275,0.15,0.578,0.1385,-0.5025,0.364,0.4005,0.0285,-0.027,0.034,0.116,-0.286,0.0835,1.152,0.025
-0.4295,0.1685,0.5985,0.13,-0.514,0.3835,0.4065,0.0365,-0.017,0.044,0.128,-0.2755,0.094,1.1975,0.0285
-0.432,0.1755,0.608,0.128,-0.52,0.3915,0.404,0.041,-0.0125,0.05,0.134,-0.27,0.0985,1.224,0.0295
-0.437,0.169,0.606,0.1335,-0.5215,0.387,0.4075,0.0425,-0.012,0.0505,0.1355,-0.267,0.0985,1.2105,0.0305
-0.4485,0.1615,0.61,0.1435,-0.5295,0.385,0.401,0.0285,-0.02,0.0465,0.1315,-0.2715,0.092,1.1835,0.0345
-0.4495,0.165,0.614,0.142,-0.532,0.389,0.3955,0.0285,-0.019,0.0495,0.1345,-0.2675,0.097,1.1675,0.038
-0.4325,0.167,0.5995,0.1325,-0.516,0.383,0.4005,0.0375,-0.012,0.0525,0.139,-0.2645,0.105,1.1895,0.0375
-0.4215,0.1665,0.588,0.1275,-0.505,0.377,0.3955,0.033,-0.017,0.0505,0.1365,-0.266,0.108,1.1945,0.0415
-0.4305,0.1645,0.5945,0.133,-0.5125,0.379,0.396,0.03,-0.019,0.049,0.138,-0.2635,0.1075,1.187,0.0455
-0.442,0.166,0.608,0.1375,-0.525,0.387,0.3955,0.026,-0.021,0.0485,0.138,-0.265,0.103,1.1935,0.0485
-0.4385,0.178,0.6165,0.13,-0.5275,0.397,0.3875,0.021,-0.0225,0.0485,0.14,-0.265,0.107,1.2075,0.053
-0.431,0.181,0.612,0.125,-0.5215,0.396,0.3855,0.022,-0.02,0.05,0.142,-0.261,0.1105,1.2175,0.053
-0.438,0.1765,0.614,0.1305,-0.526,0.395,0.391,0.0225,-0.0195,0.052,0.1445,-0.259,0.1085,1.213,0.0545
-0.446,0.1655,0.6115,0.14,-0.529,0.3885,0.3905,0.02,-0.0225,0.0485,0.142,-0.262,0.1045,1.1915,0.0555
-0.443,0.1585,0.6015,0.142,-0.5225,0.38,0.392,0.0225,-0.023,0.0485,0.142,-0.26,0.1055,1.1725,0.054
-0.4445,0.1545,0.599,0.145,-0.5215,0.3765,0.394,0.0235,-0.0225,0.0485,0.143,-0.2595,0.105,1.177,0.055
-0.442,0.15,0.592,0.1455,-0.517,0.3705,0.3925,0.021,-0.027,0.044,0.1395,-0.2645,0.101,1.1835,0.0545
-0.446,0.1555,0.6015,0.145,-0.5235,0.3785,0.3925,0.017,-0.029,0.0425,0.139,-0.2625,0.0995,1.191,0.0555
-0.4465,0.153,0.5995,0.1465,-0.523,0.376,0.388,0.014,-0.032,0.0385,0.1355,-0.2665,0.0965,1.184,0.056
-0.4495,0.1495,0.599,0.15,-0.5245,0.374,0.392,0.0165,-0.0305,0.04,0.1355,-0.265,0.095,1.184,0.055
-0.4555,0.1485,0.604,0.153,-0.5295,0.3765,0.4025,0.021,-0.025,0.044,0.1415,-0.258,0.0985,1.184,0.0555
-0.4565,0.1415,0.5985,0.1575,-0.5275,0.3695,0.405,0.0235,-0.0275,0.042,0.14,-0.2605,0.099,1.173,0.052
-0.4715,0.1305,0.602,0.1705,-0.537,0.366,0.411,0.0215,-0.031,0.0365,0.135,-0.2655,0.0905,1.175,0.0455
-0.462,0.1335,0.5955,0.164,-0.5285,0.3645,0.4095,0.0215,-0.028,0.0385,0.138,-0.2635,0.094,1.1725,0.0455
-0.443,0.1445,0.5875,0.149,-0.5155,0.366,0.403,0.022,-0.028,0.041,0.139,-0.26,0.102,1.18,0.0485
-0.4375,0.141,0.578,0.148,-0.5075,0.359,0.408,0.016,-0.034,0.0355,0.134,-0.2645,0.099,1.1805,0.047
-0.4415,0.1405,0.5815,0.15,-0.5115,0.3605,0.4095,0.0165,-0.0335,0.0375,0.138,-0.261,0.099,1.182,0.0485
-0.4415,0.1405,0.5825,0.15,-0.512,0.3615,0.402,0.018,-0.0295,0.042,0.1445,-0.2545,0.1055,1.184,0.053
-0.441,0.1445,0.5855,0.148,-0.513,0.3645,0.4005,0.021,-0.0235,0.0465,0.149,-0.248,0.112,1.179,0.0545
-0.4455,0.148,0.5935,0.1485,-0.5195,0.3705,0.4075,0.025,-0.018,0.053,0.158,-0.24,0.117,1.1805,0.057
-0.444,0.1455,0.5895,0.149,-0.5165,0.367,0.4075,0.025,-0.0175,0.0555,0.162,-0.2365,0.121,1.1755,0.0525
-0.437,0.1395,0.5765,0.1485,-0.507,0.358,0.4055,0.026,-0.015,0.0585,0.1635,-0.233,0.1255,1.1665,0.05
-0.4235,0.1335,0.557,0.1445,-0.49,0.345,0.4105,0.038,-0.0065,0.0645,0.1705,-0.226,0.133,1.16,0.0495
-0.4255,0.132,0.5575,0.1465,-0.4915,0.3445,0.416,0.0395,-0.005,0.0645,0.1725,-0.225,0.1325,1.157,0.0455
-0.4295,0.122,0.5515,0.1535,-0.4905,0.3365,0.416,0.0265,-0.012,0.0585,0.167,-0.23,0.128,1.142,0.045
-0.4315,0.114,0.5455,0.1585,-0.4885,0.3295,0.421,0.0345,-0.014,0.056,0.165,-0.232,0.125,1.1335,0.038
-0.4335,0.1145,0.5485,0.159,-0.491,0.3315,0.4255,0.0385,-0.0125,0.0545,0.1645,-0.232,0.1235,1.136,0.033
-0.4355,0.111,0.547,0.162,-0.4915,0.329,0.427,0.039,-0.01,0.058,0.1665,-0.229,0.1255,1.134,0.031
-0.4335,0.11,0.5435,0.1615,-0.4885,0.3265,0.43,0.034,-0.013,0.057,0.168,-0.2285,0.128,1.13,0.028
-0.429,0.112,0.541,0.1585,-0.485,0.3265,0.4295,0.03,-0.013,0.0575,0.167,-0.228,0.1315,1.124,0.027
-0.4275,0.1145,0.5425,0.1565,-0.485,0.328,0.4305,0.0385,-0.0065,0.0655,0.174,-0.221,0.137,1.127,0.026
-0.425,0.1195,0.5445,0.1525,-0.4845,0.3315,0.433,0.04,-0.0025,0.0665,0.178,-0.2185,0.1395,1.139,0.0275
-0.433,0.1155,0.5485,0.1585,-0.491,0.332,0.4345,0.0385,-0.0035,0.0665,0.1755,-0.219,0.1365,1.1365,0.0275
-0.4355,0.107,0.5425,0.164,-0.489,0.3245,0.4385,0.0355,-0.0085,0.063,0.172,-0.222,0.133,1.1285,0.0265
-0.4335,0.102,0.5355,0.1655,-0.485,0.3185,0.44,0.037,-0.0075,0.0595,0.17,-0.224,0.13,1.1305,0.0225
-0.4395,0.0945,0.5345,0.1725,-0.487,0.314,0.445,0.04,-0.007,0.0585,0.1675,-0.2265,0.1255,1.1315,0.0165
-0.45,0.0905,0.5405,0.1795,-0.495,0.3155,0.456,0.0425,-0.0065,0.057,0.1655,-0.23,0.121,1.129,0.011
-0.467,0.083,0.5505,0.1915,-0.509,0.3165,0.466,0.049,-0.0025,0.061,0.167,-0.2285,0.1165,1.1175,0.0035
-0.4765,0.0785,0.5555,0.1985,-0.516,0.317,0.475,0.0535,0.0025,0.0645,0.1705,-0.2255,0.1145,1.105,-0.0035
-0.472,0.0855,0.5575,0.193,-0.515,0.3215,0.481,0.0615,0.0115,0.0725,0.18,-0.2155,0.1225,1.114,-0.0075
-0.476,0.085,0.561,0.195,-0.5185,0.3225,0.4835,0.067,0.0145,0.075,0.183,-0.214,0.124,1.1255,-0.012
-0.484,0.074,0.558,0.2045,-0.521,0.3155,0.488,0.066,0.0135,0.0725,0.18,-0.2175,0.1195,1.107,-0.0185
-0.488,0.0675,0.556,0.21,-0.522,0.3115,0.4935,0.07,0.02,0.078,0.187,-0.2105,0.1215,1.091,-0.0215
-0.4895,0.0695,0.5595,0.21,-0.5245,0.314,0.495,0.0725,0.026,0.084,0.1905,-0.208,0.124,1.097,-0.0215
-0.482,0.0675,0.549,0.207,-0.5155,0.308,0.496,0.074,0.023,0.083,0.19,-0.2085,0.127,1.094,-0.027
-0.475,0.0615,0.5365,0.2065,-0.5055,0.2985,0.499,0.076,0.024,0.081,0.19,-0.208,0.1285,1.0865,-0.034
-0.478,0.0625,0.54,0.2075,-0.509,0.301,0.5035,0.079,0.027,0.083,0.1905,-0.207,0.1285,1.0925,-0.035
-0.4785,0.063,0.5415,0.2075,-0.5095,0.302,0.504,0.0785,0.0245,0.0805,0.1885,-0.2095,0.1275,1.096,-0.0365
-0.4795,0.0555,0.535,0.2115,-0.507,0.295,0.5045,0.076,0.019,0.0755,0.1845,-0.2155,0.1225,1.0825,-0.039
-0.4875,0.0525,0.54,0.217,-0.514,0.296,0.5065,0.0725,0.0215,0.077,0.1865,-0.2135,0.119,1.08,-0.036
-0.4885,0.052,0.5405,0.218,-0.5145,0.296,0.5055,0.073,0.021,0.077,0.187,-0.213,0.12,1.0815,-0.032
-0.502,0.05,0.5515,0.226,-0.527,0.3005,0.509,0.0785,0.0175,0.0755,0.187,-0.2125,0.117,1.0735,-0.032
-0.5135,0.047,0.5605,0.233,-0.537,0.3035,0.5065,0.0685,0.0145,0.072,0.1835,-0.216,0.1105,1.0685,-0.03
-0.4945,0.0465,0.541,0.224,-0.518,0.2935,0.502,0.0615,0.0055,0.066,0.1785,-0.2205,0.1105,1.0655,-0.028
-0.4865,0.042,0.528,0.222,-0.5075,0.285,0.4975,0.058,0.002,0.0605,0.1735,-0.225,0.1075,1.0635,-0.027
-0.4775,0.0405,0.518,0.218,-0.498,0.2795,0.4935,0.055,0.0005,0.059,0.17,-0.228,0.107,1.079,-0.0275
-0.473,0.041,0.514,0.216,-0.4935,0.2775,0.5005,0.0595,0.0005,0.059,0.1715,-0.2265,0.109,1.0745,-0.0305
-0.488,0.032,0.52,0.228,-0.504,0.2755,0.5015,0.0585,0.0,0.0575,0.17,-0.227,0.106,1.0485,-0.032
-0.4945,0.0305,0.525,0.232,-0.51,0.2775,0.5035,0.057,-0.0015,0.0585,0.1715,-0.2265,0.105,1.051,-0.0355
-0.518,0.0215,0.5395,0.248,-0.5285,0.28,0.512,0.061,0.004,0.06,0.1745,-0.224,0.1035,1.0375,-0.0385
-0.518,0.0245,0.5425,0.2465,-0.5305,0.2835,0.512,0.0615,0.0065,0.0635,0.1775,-0.2195,0.106,1.042,-0.039
-0.5,0.0315,0.531,0.234,-0.5155,0.281,0.508,0.0585,0.002,0.0605,0.1745,-0.2235,0.1095,1.0575,-0.039
-0.499,0.022,0.521,0.2385,-0.51,0.271,0.5075,0.055,-0.0035,0.0535,0.168,-0.2295,0.1065,1.039,-0.04
-0.4915,0.0225,0.5135,0.2345,-0.5025,0.2675,0.5055,0.0525,-0.008,0.049,0.1645,-0.2325,0.106,1.0285,-0.04
-0.4865,0.025,0.511,0.2305,-0.4985,0.2675,0.5045,0.0555,-0.008,0.0485,0.163,-0.234,0.1075,1.0195,-0.041
-0.479,0.026,0.505,0.226,-0.4915,0.265,0.504,0.0535,-0.01,0.047,0.161,-0.2355,0.1085,1.0175,-0.0415
-0.488,0.0215,0.5095,0.233,-0.4985,0.265,0.508,0.05,-0.0125,0.043,0.158,-0.2385,0.102,1.0185,-0.0405
-0.502,0.0165,0.5185,0.2425,-0.5105,0.2675,0.511,0.052,-0.012,0.0415,0.158,-0.239,0.097,1.0075,-0.041
-0.5025,0.0145,0.517,0.2435,-0.51,0.2655,0.507,0.05,-0.0155,0.037,0.154,-0.2425,0.0955,1.007,-0.0405
-0.5,0.0145,0.515,0.2425,-0.5075,0.2645,0.5075,0.0445,-0.0205,0.034,0.15,-0.2465,0.0925,1.009,-0.0395
-0.4875,0.02,0.507,0.2335,-0.4975,0.2635,0.507,0.046,-0.022,0.033,0.1535,-0.2455,0.098,1.01,-0.037
-0.4855,0.02,0.5055,0.2325,-0.4955,0.2625,0.5035,0.043,-0.024,0.032,0.1505,-0.247,0.098,1.0135,-0.036
-0.491,0.02,0.5105,0.235,-0.501,0.265,0.5025,0.0425,-0.024,0.0305,0.1485,-0.2475,0.097,1.0155,-0.036
-0.4945,0.0175,0.512,0.238,-0.5035,0.2645,0.5035,0.0435,-0.025,0.029,0.15,-0.2475,0.096,1.0095,-0.0375
-0.495,0.0175,0.5125,0.2385,-0.504,0.265,0.504,0.0435,-0.025,0.0295,0.15,-0.246,0.096,1.0145,-0.0395
-0.495,0.019,0.514,0.238,-0.5045,0.2665,0.5045,0.0455,-0.0245,0.029,0.149,-0.2445,0.0975,1.0175,-0.0365
-0.487,0.0215,0.5085,0.2325,-0.498,0.265,0.5005,0.043,-0.024,0.0295,0.151,-0.2435,0.1,1.0205,-0.034
-0.4665,0.0295,0.4955,0.2185,-0.4815,0.2625,0.4975,0.043,-0.0235,0.031,0.1525,-0.243,0.1055,1.039,-0.0325
-0.4795,0.0155,0.495,0.2315,-0.487,0.255,0.497,0.036,-0.0315,0.022,0.144,-0.251,0.0955,1.0055,-0.0355
-0.4895,0.0085,0.4985,0.24,-0.494,0.2535,0.4995,0.0325,-0.034,0.0205,0.1435,-0.2515,0.094,1.0,-0.036
-0.4855,0.0175,0.5035,0.234,-0.4945,0.2605,0.502,0.037,-0.0305,0.024,0.1465,-0.248,0.099,1.022,-0.035
-0.4965,0.015,0.5115,0.2405,-0.504,0.263,0.499,0.037,-0.0315,0.023,0.145,-0.2485,0.0955,1.011,-0.0345
-0.486,0.018,0.5045,0.2335,-0.495,0.261,0.4975,0.0375,-0.03,0.024,0.147,-0.247,0.1,1.019,-0.0325
-0.4855,0.0175,0.503,0.234,-0.494,0.26,0.4925,0.034,-0.0325,0.0215,0.146,-0.2485,0.1,1.008,-0.033
-0.49,0.0175,0.508,0.236,-0.499,0.2625,0.493,0.0305,-0.036,0.018,0.1435,-0.2505,0.0985,1.0045,-0.031
-0.4835,0.0205,0.504,0.231,-0.4935,0.262,0.493,0.029,-0.0365,0.0175,0.1425,-0.251,0.1,1.009,-0.0295
-0.49,0.0195,0.5095,0.235,-0.5,0.2645,0.49,0.028,-0.0375,0.0175,0.141,-0.251,0.098,1.0035,-0.029
-0.4945,0.022,0.5165,0.2365,-0.5055,0.269,0.493,0.028,-0.036,0.0165,0.1415,-0.2505,0.0975,1.0055,-0.028
-0.494,0.0215,0.5155,0.236,-0.5045,0.268,0.4905,0.0255,-0.038,0.0145,0.139,-0.252,0.0965,1.007,-0.0275
-0.4885,0.023,0.5115,0.2325,-0.5,0.267,0.487,0.023,-0.0405,0.0115,0.1375,-0.254,0.096,1.0105,-0.0275
-0.4885,0.023,0.5115,0.2325,-0.5,0.267,0.487,0.025,-0.039,0.014,0.14,-0.251,0.0985,1.0115,-0.0245
-0.493,0.023,0.516,0.235,-0.5045,0.269,0.4885,0.027,-0.0395,0.0145,0.139,-0.2505,0.098,1.0095,-0.0255
-0.5045,0.021,0.525,0.2415,-0.5145,0.2725,0.4905,0.0275,-0.039,0.014,0.139,-0.2525,0.093,1.0,-0.027
-0.5155,0.014,0.5295,0.2505,-0.5225,0.272,0.494,0.032,-0.036,0.017,0.1415,-0.248,0.0925,0.994,-0.026
-0.5105,0.013,0.5235,0.2485,-0.517,0.268,0.4925,0.031,-0.036,0.016,0.141,-0.2475,0.092,0.9935,-0.0295
-0.5075,0.0175,0.5245,0.2445,-0.516,0.2705,0.4905,0.0275,-0.034,0.018,0.1415,-0.246,0.093,1.0,-0.027
-0.5065,0.019,0.525,0.2435,-0.5155,0.2715,0.491,0.0285,-0.033,0.0175,0.143,-0.245,0.095,1.0015,-0.0255
-0.4995,0.019,0.5185,0.24,-0.509,0.2685,0.4885,0.0285,-0.0345,0.0155,0.141,-0.2485,0.094,1.0015,-0.0255
-0.5035,0.016,0.5195,0.2435,-0.5115,0.2675,0.4915,0.029,-0.0335,0.0175,0.1415,-0.2465,0.094,1.0015,-0.025
-0.5105,0.0135,0.524,0.248,-0.517,0.2685,0.494,0.0305,-0.0345,0.0175,0.1415,-0.2455,0.0925,0.9945,-0.025
-0.4865,0.0165,0.503,0.235,-0.495,0.2595,0.487,0.026,-0.038,0.0135,0.137,-0.25,0.095,0.9985,-0.0255
-0.4645,0.012,0.477,0.226,-0.4705,0.2445,0.4785,0.016,-0.048,0.003,0.128,-0.2595,0.0925,0.996,-0.027
-0.4645,0.0095,0.4745,0.2275,-0.4695,0.2415,0.4785,0.0145,-0.0495,0.0015,0.126,-0.2615,0.0885,0.991,-0.028
-0.47,0.014,0.484,0.2275,-0.477,0.249,0.4815,0.022,-0.0415,0.0095,0.1325,-0.254,0.094,1.0025,-0.0265
-0.4915,0.0115,0.503,0.2395,-0.497,0.257,0.4855,0.0245,-0.0395,0.0135,0.137,-0.25,0.093,0.995,-0.0235
-0.5125,0.0075,0.52,0.252,-0.516,0.2635,0.4925,0.026,-0.039,0.0165,0.141,-0.246,0.0895,0.9795,-0.0235
-0.52,0.01,0.5295,0.255,-0.525,0.2695,0.4945,0.031,-0.0335,0.021,0.1445,-0.241,0.091,0.984,-0.0235
-0.5135,0.0125,0.526,0.25,-0.52,0.269,0.4935,0.03,-0.033,0.0195,0.144,-0.242,0.0905,0.986,-0.0245
-0.494,0.0145,0.5085,0.2395,-0.5015,0.2615,0.4885,0.0215,-0.041,0.012,0.137,-0.248,0.0895,0.983,-0.0235
-0.4805,0.016,0.4965,0.2315,-0.4885,0.256,0.484,0.017,-0.045,0.0085,0.131,-0.253,0.089,0.988,-0.023
-0.4825,0.0145,0.4975,0.2335,-0.49,0.2555,0.4845,0.02,-0.041,0.01,0.1355,-0.25,0.0905,0.988,-0.0215
-0.467,0.014,0.4805,0.226,-0.474,0.247,0.4785,0.012,-0.05,0.003,0.1275,-0.2565,0.089,0.9805,-0.0205
-0.44,0.0155,0.4555,0.212,-0.4475,0.235,0.4685,0.0005,-0.061,-0.007,0.1145,-0.2685,0.0865,0.982,-0.0225
-0.4585,0.0155,0.474,0.221,-0.4665,0.2445,0.478,0.01,-0.051,0.0005,0.125,-0.2605,0.086,0.9845,-0.023
-0.484,0.014,0.498,0.235,-0.491,0.256,0.488,0.0185,-0.043,0.0085,0.132,-0.2525,0.085,0.98,-0.025
-0.481,0.012,0.493,0.2345,-0.487,0.252,0.485,0.0165,-0.044,0.007,0.1295,-0.254,0.0845,0.9805,-0.026
-0.4825,0.0125,0.495,0.2345,-0.4885,0.2535,0.488,0.0185,-0.043,0.0095,0.131,-0.251,0.0845,0.9805,-0.0245
-0.4905,0.012,0.5025,0.239,-0.4965,0.257,0.491,0.021,-0.0405,0.01,0.133,-0.2495,0.083,0.975,-0.025
-0.4885,0.012,0.5005,0.238,-0.4945,0.256,0.49,0.0225,-0.0395,0.0105,0.133,-0.2495,0.0825,0.975,-0.0255
-0.491,0.012,0.503,0.239,-0.497,0.2575,0.491,0.0215,-0.0395,0.0125,0.132,-0.2485,0.082,0.972,-0.026
-0.488,0.015,0.503,0.236,-0.4955,0.2585,0.49,0.0215,-0.0395,0.01,0.132,-0.25,0.0815,0.9735,-0.027
-0.4785,0.0165,0.495,0.231,-0.487,0.2555,0.4885,0.019,-0.041,0.0085,0.1305,-0.2525,0.0815,0.976,-0.0265
-0.4735,0.019,0.493,0.227,-0.4835,0.256,0.4865,0.0155,-0.041,0.007,0.13,-0.2525,0.083,0.9785,-0.0265
-0.476,0.0215,0.4975,0.227,-0.487,0.259,0.485,0.015,-0.043,0.0065,0.1285,-0.2545,0.0815,0.9755,-0.0265
-0.4825,0.0185,0.5005,0.2315,-0.4915,0.259,0.485,0.0165,-0.044,0.0055,0.128,-0.256,0.0795,0.963,-0.027
-0.4785,0.022,0.5005,0.228,-0.4895,0.261,0.484,0.018,-0.043,0.006,0.128,-0.254,0.082,0.9665,-0.0265
-0.476,0.023,0.4995,0.2265,-0.488,0.261,0.482,0.016,-0.045,0.005,0.126,-0.256,0.0815,0.968,-0.0275
-0.4715,0.0265,0.4975,0.222,-0.4845,0.262,0.481,0.0165,-0.042,0.005,0.127,-0.2545,0.084,0.973,-0.0275
-0.4645,0.0335,0.498,0.215,-0.4815,0.2655,0.4805,0.0155,-0.044,0.0035,0.126,-0.2555,0.0845,0.9865,-0.0275
-0.475,0.0295,0.5045,0.2225,-0.4895,0.2665,0.4825,0.013,-0.046,0.002,0.1235,-0.259,0.0785,0.9715,-0.0285
-0.4835,0.0265,0.5095,0.2285,-0.4965,0.2675,0.487,0.014,-0.0435,0.005,0.124,-0.2565,0.0795,0.9625,-0.027
-0.4775,0.0295,0.507,0.224,-0.492,0.2675,0.4845,0.013,-0.046,0.003,0.122,-0.259,0.0805,0.9655,-0.0275
-0.472,0.034,0.5065,0.2185,-0.4895,0.27,0.4815,0.0145,-0.0435,0.004,0.1225,-0.259,0.0805,0.9785,-0.03
-0.473,0.0355,0.5085,0.2185,-0.491,0.272,0.485,0.0175,-0.04,0.0075,0.126,-0.256,0.083,0.9855,-0.029
-0.482,0.0275,0.5095,0.227,-0.496,0.268,0.485,0.014,-0.043,0.0035,0.1235,-0.259,0.076,0.9545,-0.031
-0.484,0.026,0.51,0.229,-0.497,0.2675,0.485,0.014,-0.0435,0.0025,0.121,-0.2605,0.074,0.9535,-0.032
-0.485,0.0275,0.512,0.2285,-0.4985,0.2695,0.488,0.0165,-0.041,0.0055,0.1235,-0.2585,0.076,0.9575,-0.0315
-0.4905,0.026,0.5165,0.232,-0.5035,0.271,0.4885,0.0155,-0.041,0.005,0.1235,-0.258,0.0725,0.949,-0.0325
-0.4895,0.026,0.5155,0.2315,-0.5025,0.2705,0.488,0.018,-0.0385,0.006,0.1255,-0.255,0.075,0.9565,-0.031
-0.4865,0.0265,0.513,0.23,-0.5,0.2695,0.491,0.0215,-0.0355,0.009,0.1275,-0.254,0.0765,0.9585,-0.032
-0.4835,0.029,0.512,0.227,-0.4975,0.27,0.4895,0.0225,-0.036,0.0075,0.1255,-0.2555,0.0765,0.966,-0.0325
-0.48,0.027,0.507,0.2265,-0.4935,0.2665,0.487,0.02,-0.0375,0.0045,0.122,-0.2585,0.0745,0.9645,-0.0345
-0.493,0.0185,0.5115,0.237,-0.5025,0.265,0.492,0.0215,-0.0355,0.0045,0.1205,-0.261,0.0695,0.95,-0.0385
-0.498,0.0145,0.5125,0.2415,-0.5055,0.2635,0.494,0.0255,-0.034,0.0035,0.12,-0.2625,0.069,0.9425,-0.0395
-0.4775,0.0195,0.497,0.229,-0.4875,0.258,0.4945,0.0305,-0.031,0.0035,0.12,-0.263,0.0755,0.949,-0.0415
-0.481,0.0195,0.5005,0.2305,-0.491,0.2595,0.495,0.034,-0.0255,0.0065,0.1205,-0.262,0.075,0.9475,-0.042
-0.4885,0.019,0.5075,0.235,-0.498,0.263,0.4945,0.0335,-0.025,0.005,0.1185,-0.265,0.071,0.945,-0.043
-0.4795,0.0225,0.502,0.228,-0.491,0.262,0.5,0.0425,-0.017,0.0065,0.119,-0.267,0.0735,0.953,-0.0495
-0.4835,0.0215,0.5045,0.2305,-0.494,0.2625,0.5015,0.048,-0.0095,0.008,0.118,-0.2685,0.0725,0.949,-0.0485
-0.493,0.017,0.51,0.2375,-0.5015,0.2635,0.504,0.0515,-0.0065,0.0105,0.1185,-0.269,0.071,0.935,-0.053
-0.4995,0.018,0.5175,0.24,-0.5085,0.2675,0.513,0.0655,0.0085,0.0195,0.125,-0.263,0.074,0.933,-0.061
-0.4985,0.0235,0.522,0.2375,-0.51,0.2725,0.52,0.0835,0.025,0.03,0.131,-0.2595,0.0785,0.9375,-0.067
-0.4895,0.029,0.518,0.23,-0.5035,0.273,0.5305,0.11,0.0515,0.042,0.135,-0.259,0.081,0.9405,-0.0825
-0.4905,0.0285,0.519,0.231,-0.505,0.2735,0.543,0.128,0.073,0.054,0.142,-0.2545,0.083,0.9415,-0.0935
-0.5015,0.025,0.5265,0.238,-0.514,0.2755,0.5535,0.1315,0.0735,0.0575,0.144,-0.254,0.08,0.934,-0.1
-0.513,0.025,0.538,0.244,-0.5255,0.2815,0.563,0.1335,0.0735,0.06,0.1455,-0.2525,0.0775,0.936,-0.1025
-0.5195,0.0285,0.548,0.245,-0.5335,0.288,0.568,0.1255,0.0645,0.0615,0.1485,-0.25,0.077,0.9385,-0.1025
-0.513,0.035,0.548,0.2385,-0.5305,0.2915,0.57,0.121,0.06,0.0605,0.146,-0.252,0.0785,0.9365,-0.1065
-0.5115,0.0405,0.552,0.2355,-0.5315,0.296,0.5785,0.124,0.064,0.064,0.146,-0.2535,0.08,0.938,-0.1155
-0.505,0.0515,0.5565,0.2265,-0.5305,0.3035,0.5825,0.1265,0.068,0.0725,0.1505,-0.2545,0.0825,0.9475,-0.1265
-0.5065,0.062,0.5685,0.222,-0.5375,0.315,0.5805,0.121,0.074,0.083,0.1575,-0.2515,0.089,0.9565,-0.1305
-0.5155,0.073,0.5885,0.221,-0.552,0.3305,0.5855,0.1225,0.089,0.1015,0.1675,-0.2445,0.096,0.9675,-0.138
-0.51,0.0865,0.597,0.2115,-0.5535,0.3415,0.5835,0.129,0.1065,0.1235,0.1825,-0.2355,0.1085,0.9795,-0.1425
-0.509,0.0975,0.6065,0.2055,-0.5575,0.3515,0.575,0.124,0.1105,0.136,0.1935,-0.228,0.118,0.98,-0.142
-0.508,0.111,0.619,0.198,-0.5635,0.365,0.561,0.104,0.094,0.1385,0.2,-0.221,0.1265,0.984,-0.133
-0.502,0.1285,0.63,0.1865,-0.566,0.379,0.5325,0.07,0.0685,0.136,0.206,-0.214,0.135,0.9975,-0.113
-0.496,0.15,0.646,0.173,-0.571,0.398,0.506,0.0415,0.0525,0.14,0.215,-0.204,0.1465,1.0145,-0.096
-0.49,0.162,0.652,0.164,-0.571,0.4065,0.484,0.006,0.023,0.1345,0.2195,-0.197,0.1545,1.0265,-0.0765
-0.483,0.17,0.653,0.156,-0.568,0.4115,0.452,-0.056,-0.0335,0.1115,0.215,-0.1975,0.1535,1.03,-0.048
-0.4845,0.1855,0.67,0.1495,-0.5775,0.4275,0.422,-0.126,-0.0935,0.088,0.209,-0.1975,0.1545,1.04,-0.0185
-0.487,0.196,0.6835,0.145,-0.5855,0.4395,0.393,-0.1925,-0.1555,0.062,0.2045,-0.196,0.1545,1.049,0.0125
-0.484,0.214,0.698,0.1345,-0.591,0.456,0.354,-0.276,-0.2365,0.0235,0.1955,-0.1955,0.1535,1.062,0.0525
-0.4735,0.2295,0.7025,0.122,-0.588,0.4655,0.314,-0.365,-0.324,-0.0205,0.1805,-0.1985,0.1515,1.083,0.0925
-0.457,0.2355,0.692,0.1105,-0.575,0.4635,0.2725,-0.449,-0.4135,-0.0655,0.1685,-0.2,0.1495,1.087,0.1335
-0.4475,0.2395,0.687,0.1035,-0.567,0.463,0.238,-0.5285,-0.4955,-0.1035,0.164,-0.194,0.152,1.082,0.171
-0.4395,0.244,0.684,0.0975,-0.5615,0.464,0.208,-0.595,-0.566,-0.134,0.1595,-0.1875,0.1545,1.09,0.203
-0.4305,0.2485,0.679,0.0905,-0.5545,0.4635,0.179,-0.6565,-0.629,-0.1615,0.158,-0.178,0.1595,1.094,0.2365
-0.421,0.243,0.664,0.0885,-0.5425,0.4535,0.1515,-0.7115,-0.6825,-0.1885,0.156,-0.1705,0.1625,1.0785,0.2685
-0.395,0.2395,0.6345,0.0775,-0.5145,0.4365,0.1225,-0.7565,-0.7275,-0.2075,0.156,-0.162,0.171,1.075,0.2955
-0.371,0.23,0.601,0.0705,-0.486,0.415,0.1025,-0.7895,-0.7655,-0.2205,0.1625,-0.145,0.185,1.067,0.317
-0.3675,0.2165,0.584,0.075,-0.4755,0.4,0.086,-0.8225,-0.8095,-0.243,0.164,-0.136,0.186,1.0475,0.338
-0.3465,0.206,0.5525,0.07,-0.4495,0.379,0.0575,-0.872,-0.8645,-0.272,0.16,-0.131,0.19,1.0355,0.3665
-0.3215,0.198,0.5195,0.0615,-0.4205,0.3585,0.0255,-0.9315,-0.93,-0.3075,0.151,-0.1265,0.193,1.0255,0.4015
-0.3055,0.192,0.498,0.0565,-0.4015,0.3445,-0.0075,-0.982,-0.9865,-0.3385,0.1445,-0.1215,0.1955,1.0225,0.431
-0.277,0.186,0.463,0.0455,-0.37,0.324,-0.0415,-1.0345,-1.0475,-0.3755,0.1335,-0.12,0.201,1.0155,0.466
-0.252,0.1855,0.4375,0.033,-0.3445,0.311,-0.069,-1.0825,-1.107,-0.415,0.1225,-0.1185,0.2025,1.0125,0.499
-0.2295,0.184,0.4135,0.0225,-0.3215,0.2985,-0.093,-1.116,-1.1485,-0.437,0.1235,-0.1055,0.2135,1.015,0.524
-0.216,0.175,0.391,0.02,-0.3035,0.283,-0.1205,-1.1645,-1.2075,-0.4695,0.121,-0.0945,0.2195,0.995,0.554
-0.212,0.157,0.3685,0.0275,-0.29,0.2625,-0.151,-1.225,-1.278,-0.5075,0.116,-0.087,0.2205,0.958,0.588
-0.1915,0.1505,0.342,0.02,-0.267,0.246,-0.188,-1.285,-1.3485,-0.545,0.113,-0.075,0.228,0.95,0.626
-0.1615,0.1525,0.3135,0.004,-0.2375,0.233,-0.23,-1.349,-1.4165,-0.578,0.117,-0.055,0.246,0.95,0.667
-0.1135,0.1515,0.2645,-0.0195,-0.189,0.208,-0.276,-1.41,-1.48,-0.608,0.122,-0.036,0.27,0.945,0.7055
-0.078,0.1425,0.2205,-0.0325,-0.1495,0.1815,-0.3205,-1.465,-1.547,-0.6475,0.1205,-0.0215,0.282,0.9305,0.7415
-0.0535,0.1325,0.186,-0.04,-0.1195,0.159,-0.3525,-1.516,-1.6095,-0.686,0.1195,-0.0065,0.292,0.913,0.7775
-0.022,0.1325,0.1545,-0.0555,-0.0885,0.143,-0.3845,-1.553,-1.6615,-0.719,0.1195,0.008,0.3065,0.9105,0.8085
-0.0175,0.127,0.144,-0.055,-0.0805,0.135,-0.41,-1.5805,-1.7045,-0.7455,0.1235,0.027,0.318,0.9,0.8405
-0.0155,0.118,0.1335,-0.0515,-0.0745,0.1255,-0.432,-1.619,-1.7635,-0.7965,0.1055,0.0265,0.311,0.889,0.874
-0.007,0.1075,0.1145,-0.0505,-0.061,0.111,-0.4585,-1.6725,-1.8405,-0.8655,0.071,0.013,0.2955,0.876,0.9115
0.007,0.101,0.094,-0.0545,-0.0435,0.0975,-0.481,-1.718,-1.9075,-0.9275,0.041,0.0035,0.2845,0.8695,0.9455
0.019,0.0995,0.0805,-0.0595,-0.031,0.09,-0.502,-1.762,-1.978,-0.994,0.008,-0.0105,0.2685,0.873,0.9775
0.029,0.0965,0.0675,-0.063,-0.0195,0.082,-0.5245,-1.8175,-2.0585,-1.0655,-0.03,-0.027,0.25,0.8765,1.014
0.043,0.0865,0.0435,-0.065,0.0,0.0645,-0.5425,-1.857,-2.126,-1.126,-0.0585,-0.0375,0.238,0.8595,1.0435
0.076,0.081,0.005,-0.079,0.0355,0.043,-0.5715,-1.8995,-2.19,-1.1795,-0.079,-0.039,0.239,0.85,1.0765
0.123,0.0815,-0.042,-0.1025,0.0825,0.0195,-0.6125,-1.9515,-2.261,-1.2415,-0.108,-0.0455,0.2415,0.858,1.113
0.148,0.0805,-0.0675,-0.1145,0.108,0.006,-0.6445,-1.9845,-2.312,-1.281,-0.1135,-0.035,0.2535,0.855,1.1495
0.1615,0.0855,-0.076,-0.1235,0.119,0.0045,-0.676,-2.0185,-2.3545,-1.311,-0.114,-0.0175,0.2675,0.8545,1.189
0.185,0.0845,-0.1005,-0.135,0.143,-0.008,-0.706,-2.049,-2.3985,-1.3545,-0.1295,-0.014,0.271,0.8455,1.222
0.2095,0.0785,-0.131,-0.1445,0.17,-0.0265,-0.732,-2.0635,-2.4325,-1.3875,-0.138,-0.0035,0.2805,0.836,1.2535
0.2095,0.074,-0.1355,-0.142,0.1725,-0.031,-0.748,-2.0735,-2.4555,-1.411,-0.1385,0.013,0.289,0.8255,1.2815
0.215,0.07,-0.145,-0.1425,0.18,-0.038,-0.763,-2.0885,-2.484,-1.4395,-0.142,0.0265,0.297,0.813,1.311
0.2375,0.067,-0.1705,-0.1525,0.204,-0.052,-0.787,-2.1045,-2.5125,-1.4645,-0.146,0.0415,0.309,0.8075,1.3435
0.276,0.0625,-0.214,-0.1695,0.245,-0.076,-0.809,-2.118,-2.538,-1.4945,-0.1575,0.0445,0.3185,0.793,1.3645
0.3265,0.056,-0.27,-0.1915,0.2985,-0.1075,-0.8325,-2.135,-2.5685,-1.5335,-0.1775,0.0395,0.3255,0.778,1.3845
0.383,0.0405,-0.3425,-0.212,0.363,-0.1515,-0.8485,-2.145,-2.592,-1.5695,-0.1995,0.0315,0.3295,0.7585,1.4
0.4245,0.024,-0.401,-0.2245,0.4125,-0.1885,-0.8595,-2.148,-2.6075,-1.597,-0.2145,0.0315,0.3355,0.7405,1.4155
0.4365,0.0105,-0.4265,-0.224,0.4315,-0.2085,-0.8665,-2.1475,-2.613,-1.614,-0.223,0.0365,0.337,0.729,1.432
0.449,-0.013,-0.462,-0.218,0.4555,-0.238,-0.8605,-2.1415,-2.624,-1.6435,-0.2425,0.03,0.332,0.706,1.4445
0.461,-0.0325,-0.4935,-0.2145,0.477,-0.263,-0.8595,-2.1305,-2.6295,-1.6655,-0.257,0.0295,0.3325,0.6845,1.458
0.4755,-0.05,-0.5255,-0.213,0.5005,-0.288,-0.866,-2.1255,-2.632,-1.685,-0.2755,0.0235,0.3305,0.6595,1.4695
0.4875,-0.062,-0.5495,-0.213,0.5185,-0.306,-0.8665,-2.117,-2.627,-1.702,-0.295,0.0135,0.3255,0.6425,1.48
0.4835,-0.068,-0.5515,-0.2085,0.5175,-0.31,-0.86,-2.098,-2.6145,-1.7155,-0.313,0.003,0.317,0.636,1.485
0.475,-0.081,-0.556,-0.1975,0.5155,-0.3185,-0.851,-2.086,-2.614,-1.739,-0.339,-0.0125,0.301,0.623,1.4885
0.4725,-0.0825,-0.555,-0.195,0.5135,-0.319,-0.8375,-2.0685,-2.5975,-1.75,-0.361,-0.0315,0.285,0.6205,1.4905
0.4595,-0.078,-0.5375,-0.191,0.4985,-0.308,-0.826,-2.051,-2.5765,-1.7605,-0.3875,-0.057,0.266,0.6245,1.488
0.4485,-0.0825,-0.531,-0.183,0.49,-0.307,-0.812,-2.022,-2.545,-1.7595,-0.4055,-0.072,0.253,0.6185,1.483
0.454,-0.079,-0.533,-0.1875,0.4935,-0.3065,-0.7975,-1.989,-2.504,-1.7525,-0.422,-0.0905,0.243,0.621,1.473
0.4515,-0.067,-0.5185,-0.1925,0.485,-0.293,-0.782,-1.963,-2.476,-1.7605,-0.455,-0.126,0.22,0.6355,1.461
0.428,-0.0655,-0.494,-0.1815,0.461,-0.28,-0.7575,-1.9325,-2.4435,-1.764,-0.486,-0.162,0.1885,0.6365,1.448
0.41,-0.0645,-0.474,-0.173,0.442,-0.2695,-0.7385,-1.905,-2.416,-1.7735,-0.5215,-0.198,0.1595,0.633,1.436
0.406,-0.05,-0.456,-0.1785,0.431,-0.2535,-0.7225,-1.8825,-2.396,-1.7925,-0.568,-0.2475,0.124,0.65,1.425
0.392,-0.033,-0.425,-0.1795,0.4085,-0.2295,-0.7,-1.8495,-2.357,-1.788,-0.595,-0.2805,0.0985,0.6695,1.409
0.365,-0.0165,-0.3815,-0.1745,0.373,-0.199,-0.6775,-1.821,-2.32,-1.784,-0.6205,-0.308,0.075,0.6865,1.397
0.3385,-0.0025,-0.341,-0.168,0.3395,-0.172,-0.6595,-1.8055,-2.3015,-1.7955,-0.6605,-0.3545,0.0375,0.702,1.3855
0.3265,0.0015,-0.325,-0.1645,0.3255,-0.162,-0.6425,-1.787,-2.284,-1.808,-0.698,-0.394,0.005,0.7075,1.377
0.311,0.004,-0.3075,-0.1575,0.309,-0.152,-0.629,-1.7695,-2.2675,-1.816,-0.7255,-0.4215,-0.019,0.7135,1.375
0.286,0.0085,-0.277,-0.1475,0.2815,-0.1345,-0.616,-1.7465,-2.242,-1.813,-0.7465,-0.443,-0.038,0.715,1.369
0.2575,0.022,-0.2355,-0.14,0.2465,-0.107,-0.6005,-1.734,-2.2255,-1.8225,-0.78,-0.48,-0.0715,0.73,1.367
0.23,0.0335,-0.1965,-0.132,0.2135,-0.082,-0.5855,-1.7275,-2.22,-1.8425,-0.824,-0.529,-0.1115,0.7445,1.3665
0.203,0.0395,-0.1635,-0.1215,0.1835,-0.0625,-0.5655,-1.7015,-2.1905,-1.838,-0.8465,-0.556,-0.136,0.749,1.3565
0.1955,0.046,-0.15,-0.1215,0.1725,-0.052,-0.553,-1.687,-2.1745,-1.842,-0.872,-0.5885,-0.161,0.7545,1.3495
0.1935,0.048,-0.1455,-0.121,0.1695,-0.049,-0.5425,-1.68,-2.1765,-1.87,-0.9225,-0.6405,-0.2015,0.7615,1.3465
0.165,0.049,-0.116,-0.1075,0.1405,-0.034,-0.524,-1.6635,-2.1625,-1.879,-0.9545,-0.6785,-0.2355,0.764,1.3395
0.1585,0.054,-0.1045,-0.1065,0.131,-0.0255,-0.5105,-1.6475,-2.1485,-1.883,-0.9815,-0.71,-0.259,0.7685,1.3305
0.149,0.0655,-0.0835,-0.1075,0.116,-0.009,-0.502,-1.6355,-2.137,-1.886,-1.0015,-0.7355,-0.2775,0.7855,1.327
0.131,0.0725,-0.0585,-0.102,0.0945,0.007,-0.4905,-1.6205,-2.116,-1.8775,-1.0105,-0.754,-0.2925,0.792,1.321
0.1355,0.079,-0.0565,-0.108,0.096,0.011,-0.476,-1.6035,-2.089,-1.8645,-1.0215,-0.7735,-0.303,0.8005,1.3055
0.1205,0.087,-0.0335,-0.104,0.077,0.0265,-0.4635,-1.591,-2.0695,-1.858,-1.033,-0.7925,-0.317,0.7995,1.2955
0.0915,0.0875,-0.0035,-0.0895,0.0475,0.0415,-0.4435,-1.5605,-2.037,-1.839,-1.0335,-0.7995,-0.327,0.788,1.2845
0.086,0.0955,0.0095,-0.091,0.0385,0.0525,-0.435,-1.544,-2.0115,-1.823,-1.0345,-0.81,-0.331,0.799,1.272
0.0835,0.1125,0.029,-0.0985,0.027,0.0705,-0.4285,-1.526,-1.9765,-1.7935,-1.024,-0.8125,-0.327,0.8185,1.2555
0.079,0.125,0.046,-0.102,0.0165,0.085,-0.4075,-1.488,-1.9195,-1.744,-0.9985,-0.8,-0.3135,0.8235,1.2295
0.0605,0.1285,0.068,-0.0945,-0.004,0.0975,-0.387,-1.4665,-1.8945,-1.737,-1.013,-0.825,-0.3345,0.822,1.2125
0.0215,0.1235,0.102,-0.0725,-0.0405,0.1125,-0.3645,-1.4465,-1.8775,-1.7385,-1.032,-0.852,-0.3645,0.8175,1.2005
0.0005,0.119,0.1185,-0.06,-0.059,0.1185,-0.341,-1.421,-1.8515,-1.7255,-1.0365,-0.864,-0.3775,0.81,1.1795
-0.017,0.12,0.137,-0.052,-0.077,0.1285,-0.3195,-1.398,-1.828,-1.72,-1.0545,-0.894,-0.402,0.8115,1.1585
-0.0315,0.127,0.1585,-0.048,-0.095,0.1425,-0.304,-1.3785,-1.802,-1.7055,-1.061,-0.912,-0.4155,0.819,1.144
-0.0355,0.138,0.174,-0.0515,-0.105,0.156,-0.2945,-1.3525,-1.768,-1.673,-1.0445,-0.9045,-0.406,0.8285,1.129
-0.0345,0.1395,0.174,-0.053,-0.104,0.1565,-0.286,-1.3325,-1.7405,-1.65,-1.035,-0.905,-0.402,0.8195,1.111
-0.0295,0.147,0.1765,-0.059,-0.103,0.1615,-0.2775,-1.324,-1.725,-1.637,-1.0355,-0.9155,-0.406,0.822,1.098
-0.043,0.158,0.2005,-0.058,-0.1215,0.179,-0.267,-1.306,-1.7015,-1.6085,-1.0165,-0.905,-0.397,0.831,1.0875
-0.065,0.172,0.237,-0.0535,-0.151,0.204,-0.2565,-1.2915,-1.6755,-1.5815,-0.994,-0.892,-0.3885,0.837,1.0755
-0.0865,0.187,0.2735,-0.0505,-0.18,0.23,-0.245,-1.279,-1.6545,-1.5615,-0.9865,-0.8955,-0.393,0.852,1.0645
-0.0915,0.19,0.281,-0.0495,-0.1865,0.235,-0.2305,-1.256,-1.6225,-1.534,-0.977,-0.8975,-0.394,0.852,1.046
-0.0915,0.201,0.293,-0.055,-0.1925,0.247,-0.218,-1.235,-1.59,-1.51,-0.968,-0.9025,-0.394,0.864,1.0265
-0.1085,0.2025,0.3115,-0.047,-0.21,0.2565,-0.198,-1.203,-1.553,-1.4775,-0.953,-0.901,-0.392,0.869,1.0015
-0.136,0.197,0.3325,-0.031,-0.234,0.2645,-0.174,-1.1675,-1.508,-1.435,-0.9255,-0.885,-0.387,0.857,0.9755
-0.149,0.193,0.342,-0.022,-0.246,0.2675,-0.1575,-1.1375,-1.4655,-1.3955,-0.897,-0.8675,-0.374,0.847,0.952
-0.1505,0.192,0.3425,-0.021,-0.2465,0.267,-0.1435,-1.1115,-1.433,-1.365,-0.8805,-0.8615,-0.3655,0.8395,0.929
-0.1535,0.193,0.3465,-0.02,-0.25,0.27,-0.1335,-1.093,-1.403,-1.3345,-0.861,-0.8535,-0.3575,0.8325,0.9105
-0.142,0.197,0.339,-0.0275,-0.2405,0.2675,-0.131,-1.0745,-1.369,-1.296,-0.826,-0.8255,-0.33,0.833,0.8905
-0.1315,0.206,0.3375,-0.0375,-0.2345,0.2715,-0.125,-1.051,-1.3345,-1.2555,-0.7905,-0.7975,-0.3045,0.8415,0.873
-0.127,0.205,0.332,-0.039,-0.2295,0.268,-0.113,-1.024,-1.2955,-1.2155,-0.7555,-0.771,-0.2805,0.831,0.8495
-0.134,0.2045,0.3385,-0.0355,-0.236,0.271,-0.0995,-0.9915,-1.2535,-1.1745,-0.721,-0.743,-0.2585,0.825,0.822
-0.1515,0.1935,0.345,-0.021,-0.2485,0.269,-0.0775,-0.9515,-1.203,-1.1245,-0.682,-0.715,-0.242,0.8115,0.7925
-0.1505,0.1875,0.3375,-0.019,-0.244,0.262,-0.066,-0.9215,-1.1595,-1.0765,-0.643,-0.686,-0.2175,0.798,0.7695
-0.139,0.1925,0.3315,-0.027,-0.2355,0.2615,-0.0555,-0.8895,-1.112,-1.0265,-0.603,-0.6555,-0.188,0.799,0.7465
-0.1485,0.1885,0.337,-0.02,-0.243,0.2625,-0.041,-0.861,-1.0715,-0.9825,-0.5625,-0.6265,-0.1655,0.783,0.7225
-0.161,0.187,0.348,-0.013,-0.255,0.2675,-0.029,-0.8325,-1.032,-0.9455,-0.5355,-0.6085,-0.152,0.7695,0.6995
-0.1475,0.1815,0.329,-0.017,-0.238,0.255,-0.0115,-0.7925,-0.98,-0.899,-0.5075,-0.595,-0.137,0.7655,0.668
-0.1395,0.1685,0.3075,-0.0145,-0.2235,0.238,0.0025,-0.7565,-0.935,-0.856,-0.4795,-0.5805,-0.122,0.751,0.6415
-0.1595,0.1615,0.3205,-0.001,-0.24,0.2405,0.021,-0.719,-0.8865,-0.81,-0.446,-0.5585,-0.1065,0.7315,0.615
-0.1715,0.1495,0.321,0.0105,-0.246,0.235,0.0405,-0.682,-0.838,-0.7675,-0.4205,-0.55,-0.1005,0.716,0.5855
-0.158,0.1315,0.2895,0.013,-0.2235,0.21,0.0605,-0.643,-0.786,-0.7215,-0.394,-0.5395,-0.0895,0.6945,0.5525
-0.1505,0.12,0.2705,0.015,-0.2105,0.195,0.077,-0.606,-0.739,-0.6795,-0.3675,-0.528,-0.0775,0.677,0.5245
-0.1665,0.1145,0.2815,0.026,-0.224,0.198,0.096,-0.5765,-0.702,-0.648,-0.3495,-0.5215,-0.0745,0.6735,0.4985
-0.178,0.1105,0.2885,0.0335,-0.2335,0.1995,0.118,-0.544,-0.6595,-0.609,-0.322,-0.5075,-0.065,0.665,0.4685
-0.1905,0.1085,0.2995,0.0405,-0.245,0.204,0.1365,-0.504,-0.611,-0.567,-0.2985,-0.501,-0.0605,0.658,0.4405
-0.215,0.1165,0.3315,0.049,-0.2735,0.224,0.15,-0.4755,-0.572,-0.5285,-0.272,-0.4855,-0.0525,0.662,0.421
-0.235,0.119,0.354,0.058,-0.2945,0.2365,0.161,-0.448,-0.5375,-0.494,-0.2435,-0.466,-0.041,0.6595,0.4035
-0.255,0.112,0.367,0.071,-0.311,0.239,0.1815,-0.404,-0.4865,-0.447,-0.209,-0.443,-0.025,0.6435,0.372
-0.2495,0.1075,0.357,0.0705,-0.3035,0.232,0.196,-0.373,-0.4475,-0.4085,-0.1825,-0.428,-0.0095,0.6325,0.3455
-0.2295,0.111,0.3405,0.0585,-0.285,0.2255,0.198,-0.355,-0.4215,-0.3855,-0.168,-0.422,0.003,0.631,0.324
-0.2275,0.1175,0.3455,0.0545,-0.2865,0.231,0.201,-0.3355,-0.3935,-0.3575,-0.147,-0.407,0.019,0.631,0.308
-0.2275,0.1235,0.3505,0.0515,-0.289,0.237,0.21,-0.313,-0.3615,-0.327,-0.1245,-0.3935,0.032,0.6355,0.2935
-0.233,0.131,0.364,0.0505,-0.2985,0.247,0.2205,-0.287,-0.3265,-0.2945,-0.1015,-0.378,0.044,0.642,0.271
-0.245,0.137,0.382,0.0535,-0.3135,0.2595,0.2295,-0.2645,-0.2975,-0.2665,-0.0835,-0.3685,0.0495,0.6475,0.256
-0.2535,0.1365,0.39,0.0585,-0.3215,0.263,0.244,-0.235,-0.2615,-0.2335,-0.061,-0.3555,0.06,0.638,0.2345
-0.275,0.1365,0.4115,0.069,-0.343,0.274,0.263,-0.201,-0.221,-0.1955,-0.0335,-0.3385,0.071,0.6275,0.209
-0.294,0.141,0.435,0.076,-0.3645,0.288,0.2805,-0.172,-0.1855,-0.167,-0.0155,-0.3305,0.0745,0.633,0.192
-0.2995,0.139,0.439,0.08,-0.369,0.2885,0.294,-0.145,-0.154,-0.143,-0.0035,-0.3265,0.078,0.628,0.17
-0.32,0.135,0.455,0.0925,-0.3875,0.2945,0.309,-0.1205,-0.1245,-0.1165,0.011,-0.321,0.0785,0.613,0.143
-0.345,0.133,0.478,0.1055,-0.4115,0.305,0.332,-0.0865,-0.086,-0.0825,0.0335,-0.3105,0.0815,0.6055,0.115
-0.356,0.1345,0.49,0.1105,-0.423,0.312,0.3505,-0.056,-0.0515,-0.0535,0.051,-0.3035,0.085,0.598,0.0885
-0.3575,0.1365,0.494,0.11,-0.4255,0.315,0.3605,-0.037,-0.028,-0.036,0.058,-0.3035,0.087,0.6005,0.068
-0.3765,0.138,0.5145,0.119,-0.4455,0.326,0.3745,-0.0175,-0.006,-0.0205,0.062,-0.306,0.0835,0.604,0.052
-0.4095,0.134,0.543,0.1375,-0.476,0.338,0.3945,0.0045,0.017,-0.003,0.069,-0.3085,0.074,0.593,0.0305
-0.4235,0.1335,0.557,0.145,-0.4905,0.345,0.411,0.029,0.0425,0.016,0.08,-0.307,0.0735,0.591,0.0065
-0.449,0.132,0.581,0.1585,-0.515,0.356,0.4285,0.0505,0.0675,0.034,0.089,-0.3055,0.07,0.585,-0.0135
-0.467,0.124,0.591,0.1715,-0.529,0.357,0.446,0.076,0.094,0.0535,0.0955,-0.307,0.065,0.573,-0.041
-0.4725,0.1195,0.592,0.1765,-0.5325,0.3555,0.462,0.0995,0.1195,0.072,0.1015,-0.3085,0.0645,0.5685,-0.0695
-0.504,0.1125,0.616,0.1955,-0.56,0.364,0.4865,0.1255,0.149,0.095,0.11,-0.3115,0.0555,0.558,-0.098
-0.5385,0.108,0.6465,0.215,-0.5925,0.377,0.5165,0.158,0.183,0.1185,0.12,-0.314,0.0455,0.551,-0.1275
-0.568,0.101,0.6695,0.233,-0.6185,0.385,0.542,0.1845,0.2095,0.1365,0.127,-0.317,0.0365,0.538,-0.157
-0.586,0.0955,0.6815,0.245,-0.634,0.3885,0.5625,0.2095,0.2335,0.155,0.134,-0.316,0.031,0.5355,-0.1815
-0.5995,0.0885,0.688,0.255,-0.6435,0.388,0.581,0.233,0.26,0.1745,0.1435,-0.311,0.031,0.534,-0.2035
-0.6225,0.072,0.6945,0.275,-0.6585,0.383,0.5975,0.2535,0.2815,0.192,0.1515,-0.3115,0.026,0.503,-0.227
-0.636,0.061,0.6965,0.287,-0.6665,0.3785,0.6125,0.2705,0.2995,0.205,0.1585,-0.3105,0.022,0.479,-0.2485
-0.6375,0.056,0.6935,0.2905,-0.6655,0.3745,0.6265,0.286,0.3195,0.2185,0.1655,-0.3085,0.022,0.467,-0.27
-0.6495,0.05,0.6995,0.2995,-0.6745,0.3745,0.6415,0.304,0.338,0.234,0.1745,-0.3045,0.021,0.4555,-0.287
-0.667,0.0425,0.7095,0.312,-0.6885,0.376,0.655,0.323,0.3575,0.2485,0.1845,-0.298,0.0215,0.449,-0.3015
-0.6765,0.041,0.718,0.3175,-0.697,0.3795,0.6655,0.338,0.374,0.2595,0.191,-0.296,0.023,0.4455,-0.316
-0.684,0.039,0.7235,0.322,-0.7035,0.381,0.6705,0.3475,0.385,0.27,0.1965,-0.291,0.0235,0.442,-0.324
-0.687,0.0385,0.725,0.324,-0.706,0.3815,0.675,0.356,0.3955,0.2785,0.2015,-0.2895,0.0245,0.4405,-0.33
-0.679,0.0405,0.7195,0.319,-0.6995,0.38,0.675,0.358,0.3995,0.2795,0.202,-0.292,0.027,0.4365,-0.335
-0.6775,0.04,0.718,0.3185,-0.698,0.379,0.6735,0.36,0.403,0.2815,0.2015,-0.293,0.028,0.4315,-0.337
-0.6885,0.037,0.725,0.3255,-0.7065,0.3805,0.679,0.365,0.4085,0.2875,0.2045,-0.2925,0.026,0.4285,-0.343
-0.6945,0.0375,0.732,0.328,-0.713,0.3845,0.6835,0.3715,0.416,0.294,0.2085,-0.29,0.028,0.4265,-0.348
-0.702,0.0395,0.742,0.331,-0.722,0.3905,0.686,0.3785,0.4235,0.3,0.2115,-0.2885,0.029,0.427,-0.351
-0.708,0.0385,0.7465,0.3345,-0.727,0.392,0.6875,0.384,0.4315,0.305,0.216,-0.2885,0.028,0.425,-0.356
-0.6995,0.0395,0.7395,0.3295,-0.7195,0.389,0.687,0.388,0.437,0.3095,0.217,-0.289,0.03,0.429,-0.362
-0.6925,0.037,0.729,0.3275,-0.711,0.383,0.6865,0.391,0.441,0.313,0.216,-0.2895,0.0315,0.425,-0.3675
-0.697,0.0355,0.732,0.3305,-0.7145,0.3835,0.6895,0.3965,0.4485,0.317,0.221,-0.289,0.0295,0.415,-0.372
-0.7065,0.04,0.746,0.333,-0.726,0.3925,0.6935,0.405,0.458,0.3255,0.225,-0.286,0.03,0.423,-0.375
-0.7195,0.034,0.7535,0.3425,-0.7365,0.3935,0.7015,0.413,0.4675,0.3335,0.2295,-0.2825,0.029,0.4135,-0.381
-0.726,0.029,0.755,0.3485,-0.7405,0.3915,0.7035,0.4155,0.4715,0.338,0.231,-0.283,0.028,0.399,-0.3885
-0.725,0.03,0.755,0.347,-0.74,0.392,0.7045,0.419,0.4785,0.3425,0.2325,-0.2825,0.03,0.404,-0.3915
-0.724,0.03,0.7535,0.347,-0.739,0.3915,0.7105,0.4265,0.4875,0.3495,0.238,-0.2795,0.032,0.401,-0.396
-0.724,0.031,0.755,0.3465,-0.7395,0.3925,0.7095,0.4315,0.493,0.353,0.2395,-0.278,0.0345,0.3955,-0.4
-0.7295,0.029,0.7585,0.35,-0.744,0.3935,0.713,0.4375,0.4995,0.358,0.2425,-0.279,0.0325,0.3915,-0.4015
-0.7335,0.031,0.764,0.351,-0.749,0.3975,0.7175,0.445,0.509,0.3665,0.2485,-0.276,0.034,0.3885,-0.408
-0.733,0.0315,0.764,0.3505,-0.7485,0.3975,0.719,0.449,0.515,0.37,0.25,-0.276,0.036,0.385,-0.415
-0.731,0.0265,0.7575,0.3525,-0.744,0.392,0.721,0.4515,0.5185,0.373,0.251,-0.2775,0.0355,0.3765,-0.4165
-0.7305,0.027,0.7575,0.3515,-0.744,0.392,0.7235,0.4585,0.526,0.38,0.2545,-0.2755,0.0375,0.3735,-0.4205
-0.7325,0.0305,0.7635,0.351,-0.748,0.3965,0.7275,0.4635,0.534,0.3865,0.2595,-0.273,0.04,0.3735,-0.425
-0.7365,0.0335,0.77,0.351,-0.7535,0.4015,0.7315,0.47,0.544,0.394,0.264,-0.2695,0.0425,0.375,-0.427
-0.741,0.0365,0.7775,0.352,-0.7595,0.4065,0.7355,0.4775,0.5535,0.4,0.268,-0.2675,0.0445,0.3785,-0.432
-0.7435,0.038,0.7815,0.3525,-0.7625,0.4095,0.739,0.486,0.563,0.408,0.2735,-0.265,0.0465,0.383,-0.437
-0.753,0.0355,0.7885,0.3585,-0.771,0.412,0.7415,0.49,0.569,0.414,0.2745,-0.2645,0.0445,0.3765,-0.4395
-0.758,0.034,0.7915,0.3615,-0.775,0.4125,0.741,0.491,0.573,0.4165,0.276,-0.267,0.042,0.3665,-0.442
-0.7435,0.0365,0.78,0.3535,-0.762,0.408,0.7405,0.4905,0.576,0.4185,0.275,-0.269,0.045,0.37,-0.4465
-0.7385,0.0365,0.775,0.3505,-0.7565,0.4055,0.741,0.4945,0.583,0.423,0.2765,-0.2675,0.0475,0.364,-0.449
-0.743,0.0365,0.7795,0.353,-0.7615,0.408,0.744,0.5015,0.5915,0.4295,0.28,-0.2665,0.048,0.3545,-0.453
-0.75,0.037,0.787,0.3565,-0.7685,0.4115,0.748,0.505,0.598,0.435,0.282,-0.266,0.0475,0.354,-0.458
-0.7535,0.0365,0.7905,0.3585,-0.772,0.4135,0.753,0.516,0.61,0.444,0.2885,-0.2595,0.0515,0.3575,-0.462
-0.7525,0.0375,0.7895,0.3575,-0.771,0.413,0.7555,0.523,0.6185,0.4525,0.2925,-0.2585,0.0535,0.3595,-0.467
-0.7535,0.0385,0.792,0.357,-0.7725,0.415,0.7575,0.5275,0.6255,0.4585,0.297,-0.258,0.055,0.3515,-0.4715
-0.7565,0.04,0.7965,0.358,-0.7765,0.418,0.759,0.531,0.631,0.463,0.2985,-0.256,0.056,0.3445,-0.476
-0.7645,0.0395,0.8045,0.3625,-0.7845,0.4215,0.7625,0.5365,0.639,0.47,0.304,-0.255,0.0555,0.3415,-0.4815
-0.767,0.038,0.8055,0.3645,-0.7865,0.4215,0.767,0.544,0.6485,0.479,0.3105,-0.2515,0.0585,0.336,-0.486
-0.772,0.04,0.8125,0.3655,-0.792,0.426,0.768,0.55,0.657,0.487,0.315,-0.2485,0.0615,0.336,-0.487
-0.783,0.045,0.8285,0.3685,-0.8055,0.4365,0.7735,0.56,0.669,0.497,0.322,-0.2435,0.063,0.3385,-0.4925
-0.797,0.0415,0.8385,0.3775,-0.818,0.4395,0.7795,0.5685,0.6805,0.5065,0.329,-0.239,0.0635,0.3315,-0.499
-0.804,0.0405,0.8445,0.3815,-0.8245,0.442,0.7845,0.578,0.6925,0.517,0.3385,-0.232,0.0655,0.329,-0.501
-0.803,0.043,0.846,0.3795,-0.824,0.4445,0.786,0.582,0.699,0.5235,0.34,-0.2315,0.066,0.3285,-0.506
-0.7995,0.045,0.8445,0.377,-0.822,0.4445,0.7855,0.5835,0.7035,0.5275,0.3425,-0.232,0.0685,0.3225,-0.5095
-0.7875,0.049,0.837,0.369,-0.812,0.4425,0.7825,0.5845,0.708,0.5295,0.3425,-0.234,0.071,0.3225,-0.5135
-0.7745,0.051,0.826,0.3615,-0.8,0.438,0.7795,0.5835,0.7095,0.531,0.3415,-0.2375,0.071,0.3245,-0.519
-0.756,0.054,0.81,0.3505,-0.783,0.4315,0.776,0.582,0.7105,0.53,0.339,-0.2415,0.071,0.3245,-0.523
-0.757,0.053,0.81,0.352,-0.7835,0.4315,0.777,0.5865,0.7165,0.535,0.3395,-0.2415,0.072,0.3155,-0.528
-0.7705,0.053,0.8235,0.3585,-0.797,0.438,0.7835,0.596,0.728,0.545,0.3495,-0.235,0.0755,0.3115,-0.5335
-0.7485,0.054,0.8025,0.347,-0.7755,0.428,0.7795,0.5965,0.731,0.5475,0.3485,-0.236,0.081,0.316,-0.5365
-0.744,0.053,0.797,0.3455,-0.7705,0.4245,0.778,0.598,0.7345,0.552,0.3495,-0.2365,0.0835,0.3105,-0.54
-0.7645,0.054,0.8185,0.355,-0.7915,0.436,0.783,0.6045,0.744,0.5605,0.356,-0.233,0.0795,0.307,-0.545
-0.776,0.052,0.828,0.362,-0.802,0.4395,0.7905,0.615,0.7565,0.572,0.3655,-0.225,0.082,0.302,-0.5515
-0.795,0.051,0.846,0.372,-0.8205,0.4485,0.799,0.6245,0.77,0.5835,0.3755,-0.218,0.084,0.3,-0.558
-0.793,0.051,0.844,0.371,-0.8185,0.4475,0.7985,0.628,0.7755,0.5885,0.376,-0.2175,0.0845,0.2995,-0.5605
-0.7885,0.0495,0.8385,0.3695,-0.8135,0.4435,0.799,0.633,0.783,0.5945,0.3815,-0.2145,0.0875,0.2915,-0.5655
-0.794,0.0505,0.845,0.3715,-0.8195,0.4475,0.8035,0.638,0.7915,0.6045,0.3875,-0.2115,0.093,0.2925,-0.568
-0.7855,0.051,0.8365,0.367,-0.8115,0.4435,0.8035,0.6405,0.796,0.6085,0.3885,-0.21,0.096,0.2865,-0.572
-0.7895,0.0495,0.8395,0.3695,-0.8145,0.4445,0.8065,0.6455,0.805,0.616,0.3945,-0.2065,0.0965,0.279,-0.578
-0.797,0.0515,0.8485,0.3725,-0.823,0.45,0.8105,0.6535,0.814,0.6265,0.403,-0.202,0.099,0.2845,-0.582
-0.796,0.0535,0.8495,0.371,-0.823,0.451,0.814,0.6595,0.823,0.6335,0.4085,-0.197,0.103,0.2885,-0.5865
-0.798,0.0535,0.8515,0.372,-0.8245,0.452,0.818,0.667,0.834,0.645,0.417,-0.19,0.109,0.2885,-0.5885
-0.8135,0.0585,0.872,0.3775,-0.843,0.465,0.8235,0.677,0.846,0.6565,0.428,-0.1825,0.1115,0.294,-0.5915
-0.8235,0.0625,0.886,0.3805,-0.855,0.474,0.829,0.684,0.856,0.6655,0.4345,-0.176,0.114,0.293,-0.5945
-0.8275,0.0615,0.889,0.3825,-0.858,0.475,0.83,0.6865,0.8595,0.671,0.4375,-0.1755,0.115,0.2815,-0.5995
-0.8325,0.059,0.8915,0.3865,-0.862,0.475,0.828,0.6865,0.8625,0.672,0.4395,-0.178,0.114,0.277,-0.6035
-0.82,0.059,0.879,0.38,-0.8495,0.4685,0.827,0.6875,0.8675,0.6775,0.4415,-0.1755,0.119,0.277,-0.6065
-0.8005,0.0625,0.8625,0.369,-0.8315,0.462,0.8205,0.686,0.8665,0.6785,0.4425,-0.1765,0.1245,0.2775,-0.61
-0.7925,0.062,0.8545,0.365,-0.823,0.4575,0.8175,0.6855,0.87,0.681,0.445,-0.1775,0.1265,0.274,-0.6135
-0.7985,0.064,0.862,0.367,-0.8305,0.463,0.824,0.6955,0.8815,0.695,0.455,-0.168,0.131,0.27,-0.617
-0.797,0.067,0.8635,0.3645,-0.8305,0.465,0.823,0.6995,0.886,0.7005,0.4585,-0.165,0.135,0.2715,-0.62
-0.806,0.0665,0.8725,0.3695,-0.8395,0.469,0.8245,0.7015,0.8925,0.7075,0.464,-0.161,0.1365,0.267,-0.6245
-0.816,0.0665,0.8825,0.3745,-0.8495,0.474,0.8315,0.71,0.9035,0.7185,0.4735,-0.1525,0.139,0.2635,-0.628
-0.809,0.065,0.874,0.3715,-0.8415,0.469,0.8305,0.7145,0.9075,0.723,0.4765,-0.151,0.1415,0.259,-0.635
-0.8135,0.064,0.8775,0.3745,-0.845,0.4705,0.83,0.7185,0.9125,0.7295,0.4825,-0.146,0.145,0.255,-0.639
-0.8205,0.062,0.882,0.379,-0.8515,0.4715,0.8335,0.717,0.92,0.7375,0.4905,-0.1395,0.1475,0.2565,-0.6405
-0.823,0.06,0.883,0.381,-0.853,0.4715,0.8345,0.719,0.926,0.7455,0.4965,-0.1355,0.151,0.25,-0.644
-0.8255,0.0635,0.8885,0.381,-0.8575,0.476,0.8345,0.7265,0.932,0.754,0.503,-0.13,0.155,0.2485,-0.6475
-0.821,0.0635,0.884,0.3785,-0.8525,0.4735,0.835,0.729,0.938,0.7595,0.5085,-0.126,0.159,0.2475,-0.651
-0.8175,0.0655,0.883,0.3755,-0.85,0.474,0.833,0.728,0.941,0.763,0.5115,-0.1235,0.1615,0.252,-0.6515
-0.8245,0.066,0.8905,0.379,-0.8575,0.478,0.8355,0.7335,0.9475,0.773,0.5195,-0.1165,0.165,0.25,-0.656
-0.826,0.064,0.8895,0.381,-0.858,0.4765,0.839,0.74,0.954,0.781,0.5275,-0.109,0.171,0.2375,-0.6605
-0.8285,0.067,0.896,0.3805,-0.8625,0.481,0.838,0.741,0.9585,0.786,0.534,-0.105,0.1765,0.2435,-0.658
-0.819,0.07,0.889,0.374,-0.854,0.4795,0.835,0.74,0.96,0.7885,0.5365,-0.103,0.18,0.24,-0.6595
-0.8025,0.0755,0.878,0.363,-0.8405,0.4765,0.83,0.737,0.96,0.789,0.539,-0.101,0.1845,0.2395,-0.6625
-0.819,0.077,0.896,0.371,-0.8575,0.4865,0.833,0.742,0.967,0.7965,0.548,-0.095,0.187,0.2435,-0.664
-0.8255,0.076,0.9015,0.3745,-0.8635,0.4885,0.8365,0.7455,0.9705,0.804,0.554,-0.0895,0.189,0.235,-0.667
-0.8105,0.0775,0.888,0.366,-0.8495,0.483,0.832,0.7415,0.9695,0.804,0.5555,-0.0885,0.193,0.2325,-0.6675
-0.8055,0.084,0.8895,0.361,-0.8475,0.4865,0.8275,0.74,0.97,0.806,0.559,-0.086,0.196,0.2405,-0.6675
-0.8095,0.0915,0.901,0.359,-0.8555,0.496,0.8275,0.743,0.975,0.815,0.5675,-0.078,0.202,0.2425,-0.6685
-0.814,0.0925,0.9065,0.3605,-0.86,0.499,0.8275,0.744,0.9775,0.818,0.5725,-0.0735,0.204,0.2355,-0.671
-0.8175,0.0945,0.912,0.3615,-0.8645,0.503,0.824,0.743,0.977,0.82,0.5755,-0.0705,0.2065,0.2375,-0.6715
-0.81,0.0945,0.904,0.3575,-0.857,0.499,0.8215,0.742,0.9765,0.8225,0.58,-0.0675,0.214,0.232,-0.6695
-0.807,0.0935,0.9005,0.3565,-0.854,0.497,0.82,0.741,0.978,0.826,0.583,-0.0635,0.2185,0.2265,-0.672
-0.8185,0.0925,0.911,0.363,-0.8645,0.5015,0.821,0.7425,0.983,0.833,0.59,-0.0555,0.22,0.227,-0.6725
-0.807,0.0945,0.9015,0.356,-0.8545,0.498,0.8175,0.7415,0.9815,0.835,0.594,-0.051,0.226,0.226,-0.6735
-0.8025,0.098,0.9005,0.352,-0.8515,0.499,0.8145,0.739,0.982,0.837,0.5985,-0.048,0.23,0.224,-0.673
-0.802,0.0985,0.9005,0.3515,-0.851,0.499,0.817,0.7395,0.9835,0.8405,0.6045,-0.0415,0.2345,0.226,-0.6675
-0.7975,0.101,0.898,0.348,-0.848,0.4995,0.815,0.7395,0.984,0.8435,0.61,-0.035,0.2395,0.223,-0.6705
-0.8155,0.1015,0.917,0.357,-0.866,0.509,0.8185,0.743,0.9875,0.8495,0.618,-0.028,0.24,0.22,-0.673
-0.8195,0.1,0.92,0.3595,-0.87,0.51,0.8175,0.7435,0.9885,0.8545,0.6245,-0.0195,0.2455,0.222,-0.6695
-0.804,0.0995,0.9035,0.352,-0.8535,0.5015,0.8125,0.739,0.986,0.854,0.628,-0.016,0.251,0.2215,-0.6675
-0.786,0.1045,0.8905,0.3405,-0.8385,0.4975,0.8035,0.729,0.9765,0.8475,0.623,-0.02,0.253,0.2235,-0.665
-0.765,0.11,0.8755,0.3275,-0.8205,0.4925,0.7905,0.718,0.967,0.841,0.619,-0.024,0.256,0.221,-0.663
-0.755,0.111,0.8665,0.3215,-0.8105,0.4885,0.7875,0.714,0.962,0.84,0.622,-0.021,0.259,0.2185,-0.661
-0.758,0.1125,0.8705,0.3225,-0.8145,0.491,0.783,0.708,0.957,0.8385,0.6215,-0.0185,0.261,0.221,-0.6555
-0.7615,0.1115,0.8735,0.3245,-0.8175,0.4925,0.782,0.704,0.955,0.8385,0.6255,-0.0155,0.262,0.219,-0.6525
-0.763,0.1135,0.8765,0.3245,-0.8195,0.495,0.78,0.6995,0.9515,0.8395,0.629,-0.01,0.2655,0.2095,-0.6525
-0.774,0.1175,0.8915,0.328,-0.833,0.5045,0.7795,0.7005,0.953,0.843,0.6345,-0.0015,0.268,0.2125,-0.6495
-0.778,0.12,0.898,0.3285,-0.838,0.509,0.78,0.7005,0.9525,0.8445,0.6395,0.0045,0.2705,0.216,-0.6445
-0.772,0.1225,0.894,0.3245,-0.833,0.508,0.774,0.6905,0.9425,0.84,0.638,0.0045,0.273,0.213,-0.6405
-0.7805,0.1205,0.9005,0.3295,-0.8405,0.5105,0.7705,0.6845,0.936,0.8375,0.64,0.0065,0.273,0.215,-0.6355
-0.7775,0.119,0.8965,0.329,-0.837,0.5075,0.765,0.6805,0.9325,0.8365,0.6415,0.011,0.277,0.21,-0.632
-0.767,0.119,0.886,0.3235,-0.8265,0.5025,0.7605,0.6735,0.9265,0.833,0.6425,0.014,0.2795,0.2045,-0.63
-0.768,0.123,0.891,0.3225,-0.8295,0.5065,0.756,0.666,0.918,0.828,0.6425,0.014,0.2785,0.2085,-0.625
-0.762,0.1235,0.8855,0.319,-0.824,0.5045,0.753,0.6595,0.911,0.8245,0.643,0.018,0.2805,0.2085,-0.6205
-0.7505,0.1225,0.873,0.3135,-0.8115,0.4975,0.7465,0.6525,0.903,0.819,0.642,0.0185,0.283,0.207,-0.6155
-0.7485,0.126,0.8745,0.3115,-0.8115,0.5,0.7415,0.6455,0.8935,0.8135,0.6395,0.018,0.2835,0.2045,-0.6145
-0.7505,0.125,0.876,0.3125,-0.8135,0.5,0.7395,0.641,0.887,0.8095,0.6395,0.0205,0.285,0.197,-0.61
-0.743,0.124,0.8665,0.3095,-0.805,0.495,0.7315,0.63,0.876,0.8005,0.636,0.0175,0.285,0.1925,-0.6035
-0.7485,0.1235,0.872,0.312,-0.81,0.4975,0.728,0.622,0.868,0.7955,0.6365,0.022,0.286,0.197,-0.5955
-0.7615,0.1255,0.887,0.3175,-0.8245,0.506,0.7305,0.623,0.8685,0.7985,0.6435,0.0325,0.288,0.1995,-0.5865
-0.757,0.1245,0.8815,0.316,-0.8195,0.503,0.7245,0.6155,0.858,0.791,0.641,0.0325,0.2885,0.186,-0.5825
-0.759,0.121,0.88,0.3185,-0.8195,0.5005,0.7175,0.606,0.8465,0.783,0.6375,0.0315,0.29,0.1775,-0.576
-0.757,0.1185,0.8755,0.3185,-0.816,0.497,0.7135,0.5955,0.836,0.776,0.634,0.031,0.289,0.1755,-0.568
-0.7365,0.1195,0.856,0.3085,-0.7965,0.4875,0.7015,0.5785,0.818,0.7605,0.6235,0.0225,0.286,0.1805,-0.5605
-0.724,0.117,0.841,0.3035,-0.7825,0.4785,0.6915,0.566,0.802,0.748,0.6145,0.016,0.284,0.1755,-0.5555
-0.7205,0.116,0.8365,0.302,-0.7785,0.476,0.6885,0.5605,0.794,0.743,0.616,0.0205,0.2865,0.172,-0.5485
-0.724,0.119,0.843,0.302,-0.7835,0.481,0.685,0.555,0.787,0.738,0.617,0.0255,0.289,0.1795,-0.5415
-0.7275,0.113,0.841,0.307,-0.7845,0.477,0.682,0.5465,0.7765,0.73,0.614,0.026,0.286,0.1665,-0.5355
-0.7165,0.1135,0.8305,0.3015,-0.7735,0.472,0.6735,0.5345,0.7625,0.718,0.607,0.021,0.285,0.168,-0.525
-0.7035,0.1145,0.818,0.2945,-0.761,0.466,0.6615,0.5175,0.744,0.702,0.597,0.0125,0.2805,0.1695,-0.5205
-0.7105,0.1055,0.8165,0.3025,-0.7635,0.461,0.66,0.5105,0.735,0.6965,0.596,0.0145,0.278,0.15,-0.516
-0.72,0.1015,0.8215,0.309,-0.771,0.4615,0.6585,0.5065,0.7275,0.6935,0.595,0.0175,0.276,0.1405,-0.5095
-0.7105,0.103,0.8135,0.303,-0.762,0.458,0.652,0.496,0.715,0.683,0.5905,0.017,0.2745,0.149,-0.5045
-0.6925,0.1085,0.8005,0.2915,-0.7465,0.4545,0.6435,0.4855,0.701,0.672,0.585,0.015,0.2775,0.1585,-0.4965
-0.657,0.1075,0.765,0.2745,-0.711,0.436,0.6275,0.465,0.677,0.65,0.5675,0.0005,0.2745,0.1525,-0.488
-0.6455,0.1035,0.749,0.2705,-0.697,0.426,0.619,0.4505,0.66,0.636,0.5575,-0.005,0.271,0.1445,-0.481
-0.6725,0.1065,0.779,0.283,-0.7255,0.4425,0.625,0.4535,0.6605,0.639,0.5655,0.007,0.271,0.1475,-0.474
-0.672,0.11,0.782,0.2805,-0.727,0.446,0.622,0.4475,0.6525,0.6325,0.565,0.008,0.2705,0.159,-0.4655
-0.6725,0.1065,0.779,0.283,-0.7255,0.4425,0.618,0.441,0.642,0.6255,0.561,0.01,0.2695,0.1605,-0.456
-0.673,0.1025,0.7755,0.285,-0.724,0.4385,0.616,0.4345,0.633,0.617,0.5575,0.0095,0.2655,0.15,-0.4495
-0.67,0.1025,0.7725,0.2835,-0.721,0.437,0.6095,0.424,0.62,0.6045,0.551,0.0055,0.2635,0.1495,-0.438
-0.6795,0.098,0.777,0.2905,-0.728,0.4375,0.605,0.413,0.605,0.592,0.5425,0.0025,0.2595,0.1365,-0.4295
-0.6865,0.094,0.7805,0.2965,-0.7335,0.437,0.601,0.402,0.5925,0.5815,0.5375,-0.002,0.2515,0.1185,-0.4245
-0.7015,0.096,0.797,0.3025,-0.7495,0.446,0.601,0.3975,0.587,0.5765,0.538,0.002,0.249,0.122,-0.415
-0.6865,0.095,0.7815,0.2955,-0.734,0.438,0.5915,0.385,0.5715,0.5625,0.528,-0.003,0.2475,0.126,-0.4075
-0.654,0.095,0.749,0.2795,-0.7015,0.4215,0.577,0.3665,0.5485,0.5425,0.5125,-0.016,0.2435,0.1245,-0.3995
-0.6285,0.0955,0.7235,0.2665,-0.676,0.409,0.564,0.347,0.526,0.521,0.4945,-0.0285,0.2395,0.113,-0.3915
-0.605,0.09,0.6955,0.2575,-0.6505,0.3925,0.5505,0.3295,0.505,0.502,0.4805,-0.0395,0.2355,0.107,-0.382
-0.6015,0.0925,0.694,0.2545,-0.6475,0.393,0.5455,0.3215,0.493,0.492,0.4735,-0.042,0.235,0.1075,-0.373
-0.616,0.0955,0.711,0.26,-0.6635,0.403,0.546,0.3155,0.486,0.485,0.4715,-0.0405,0.232,0.107,-0.366
-0.62,0.095,0.715,0.2625,-0.6675,0.4045,0.5445,0.3105,0.478,0.479,0.4695,-0.04,0.229,0.108,-0.359
-0.619,0.0915,0.711,0.2635,-0.665,0.401,0.5405,0.3025,0.4665,0.4685,0.461,-0.0435,0.2255,0.1075,-0.353
-0.624,0.0855,0.71,0.269,-0.667,0.3975,0.5365,0.292,0.4525,0.4545,0.452,-0.0485,0.2195,0.0995,-0.3455
-0.618,0.084,0.702,0.2665,-0.66,0.3925,0.5315,0.283,0.44,0.4425,0.4445,-0.0535,0.2165,0.0915,-0.337
-0.6075,0.086,0.693,0.2605,-0.6505,0.3895,0.525,0.273,0.4275,0.431,0.436,-0.0575,0.2145,0.0945,-0.328
-0.598,0.087,0.685,0.255,-0.6415,0.386,0.5195,0.2635,0.4135,0.4185,0.428,-0.062,0.213,0.0995,-0.3205
-0.599,0.0865,0.6855,0.256,-0.6425,0.386,0.5165,0.255,0.403,0.406,0.421,-0.0665,0.2085,0.1025,-0.311
-0.6035,0.0865,0.6905,0.2585,-0.647,0.388,0.5135,0.2465,0.3915,0.3955,0.414,-0.07,0.2045,0.0985,-0.3035
-0.6005,0.0845,0.6845,0.258,-0.6425,0.3845,0.5105,0.239,0.3795,0.3855,0.407,-0.0725,0.2005,0.094,-0.299
-0.6005,0.0825,0.683,0.2585,-0.642,0.3825,0.5075,0.233,0.37,0.3765,0.402,-0.074,0.197,0.0905,-0.2925
-0.5975,0.0815,0.679,0.258,-0.6385,0.38,0.4995,0.2225,0.356,0.3635,0.3925,-0.081,0.192,0.0855,-0.2845
-0.581,0.084,0.665,0.2485,-0.623,0.3745,0.4875,0.2065,0.339,0.3465,0.3795,-0.0915,0.188,0.08,-0.2755
-0.573,0.0835,0.6565,0.2445,-0.615,0.37,0.481,0.1975,0.3265,0.3355,0.3715,-0.0965,0.184,0.0805,-0.2655
-0.5805,0.0815,0.662,0.2495,-0.6215,0.3715,0.4795,0.192,0.317,0.3265,0.365,-0.0985,0.1795,0.078,-0.257
-0.588,0.0815,0.6695,0.253,-0.629,0.375,0.4755,0.185,0.3065,0.317,0.358,-0.1025,0.174,0.075,-0.253
-0.584,0.0785,0.6625,0.2525,-0.623,0.37,0.4705,0.175,0.295,0.305,0.3505,-0.108,0.17,0.078,-0.2445
-0.568,0.0825,0.651,0.2425,-0.6095,0.3665,0.464,0.164,0.281,0.29,0.34,-0.114,0.169,0.0785,-0.236
-0.559,0.085,0.6445,0.237,-0.602,0.3645,0.4605,0.1595,0.27,0.2815,0.332,-0.1185,0.167,0.077,-0.23
-0.5555,0.086,0.6415,0.2345,-0.5985,0.3635,0.455,0.1505,0.2595,0.27,0.324,-0.1225,0.163,0.075,-0.2235
-0.562,0.082,0.6435,0.2395,-0.6025,0.3625,0.45,0.1405,0.247,0.257,0.3135,-0.13,0.1545,0.0615,-0.218
-0.567,0.0785,0.6455,0.244,-0.6065,0.3615,0.451,0.1365,0.238,0.2495,0.309,-0.132,0.1495,0.0555,-0.212
-0.564,0.0805,0.6445,0.2415,-0.604,0.3625,0.4485,0.132,0.231,0.242,0.3035,-0.134,0.148,0.0565,-0.2065
-0.559,0.0765,0.6355,0.2405,-0.5975,0.356,0.443,0.122,0.2195,0.229,0.2935,-0.142,0.1445,0.0455,-0.2005
-0.552,0.0765,0.6285,0.2375,-0.5905,0.352,0.4385,0.1145,0.21,0.2195,0.2865,-0.1455,0.141,0.0445,-0.192
-0.5495,0.0745,0.624,0.2375,-0.587,0.349,0.4365,0.1095,0.2025,0.2115,0.28,-0.15,0.139,0.04,-0.1865
-0.541,0.0685,0.6095,0.236,-0.575,0.3385,0.4345,0.1015,0.19,0.1975,0.27,-0.157,0.137,0.034,-0.1825
-0.533,0.0685,0.602,0.232,-0.5675,0.335,0.4315,0.096,0.1825,0.1895,0.264,-0.16,0.1355,0.038,-0.1755
-0.5365,0.0715,0.608,0.2325,-0.572,0.339,0.4265,0.091,0.175,0.1825,0.258,-0.164,0.132,0.043,-0.171
-0.5315,0.0675,0.599,0.232,-0.565,0.333,0.423,0.085,0.167,0.1735,0.2505,-0.1675,0.1295,0.0415,-0.165
-0.538,0.062,0.5995,0.2375,-0.569,0.3305,0.425,0.0805,0.161,0.166,0.247,-0.17,0.1275,0.0315,-0.158
-0.552,0.0615,0.6135,0.245,-0.5825,0.337,0.423,0.074,0.1525,0.158,0.2405,-0.174,0.121,0.023,-0.1535
-0.565,0.064,0.629,0.2505,-0.597,0.3465,0.4255,0.0735,0.151,0.1555,0.24,-0.173,0.119,0.027,-0.1455
-0.5655,0.0635,0.6285,0.251,-0.597,0.3455,0.4245,0.0685,0.144,0.1485,0.2335,-0.1775,0.1165,0.028,-0.1405
-0.557,0.0645,0.622,0.246,-0.5895,0.343,0.4185,0.062,0.134,0.138,0.225,-0.183,0.1135,0.0245,-0.136
-0.565,0.068,0.633,0.248,-0.599,0.3505,0.42,0.0595,0.1305,0.133,0.222,-0.1845,0.111,0.032,-0.1315
-0.5375,0.0645,0.602,0.2365,-0.57,0.333,0.4075,0.0435,0.1135,0.116,0.205,-0.1995,0.1075,0.0265,-0.129
-0.5315,0.065,0.5965,0.233,-0.564,0.3305,0.403,0.0375,0.105,0.106,0.198,-0.206,0.105,0.025,-0.1235
-0.531,0.064,0.5945,0.2335,-0.563,0.329,0.402,0.0335,0.098,0.1,0.1925,-0.2085,0.105,0.025,-0.1175
-0.518,0.0625,0.58,0.2275,-0.549,0.321,0.396,0.0255,0.088,0.089,0.183,-0.2145,0.1025,0.019,-0.112
-0.5335,0.0655,0.5985,0.2335,-0.566,0.332,0.399,0.027,0.0875,0.087,0.181,-0.2145,0.0995,0.0275,-0.109
-0.524,0.063,0.587,0.2305,-0.5555,0.3245,0.3945,0.021,0.079,0.0795,0.174,-0.2205,0.097,0.022,-0.1065
-0.5185,0.0585,0.577,0.23,-0.5475,0.3175,0.3925,0.015,0.072,0.0705,0.165,-0.227,0.0925,0.007,-0.1055
-0.5135,0.058,0.572,0.2275,-0.543,0.3145,0.3885,0.011,0.067,0.0635,0.159,-0.231,0.0905,0.0065,-0.1025
-0.5125,0.058,0.571,0.227,-0.542,0.314,0.3885,0.008,0.063,0.059,0.157,-0.2345,0.0875,0.007,-0.098
-0.51,0.057,0.567,0.2265,-0.539,0.312,0.388,0.004,0.057,0.053,0.151,-0.2395,0.0845,0.0005,-0.096
-0.4975,0.0575,0.555,0.2195,-0.526,0.3055,0.383,-0.0015,0.05,0.0465,0.144,-0.2435,0.085,0.0005,-0.092
-0.502,0.059,0.5605,0.221,-0.531,0.3095,0.3865,-0.001,0.049,0.046,0.1445,-0.2445,0.081,0.0065,-0.0885
-0.5085,0.0625,0.5705,0.223,-0.5395,0.316,0.3865,-0.0035,0.046,0.0405,0.141,-0.246,0.0785,0.007,-0.086
-0.5125,0.0615,0.5735,0.2255,-0.543,0.317,0.388,-0.005,0.0445,0.0375,0.1375,-0.248,0.0755,0.008,-0.084
-0.5065,0.0595,0.566,0.223,-0.536,0.3125,0.386,-0.0075,0.042,0.036,0.1345,-0.2505,0.074,0.0,-0.08
-0.5035,0.0595,0.5625,0.222,-0.533,0.3105,0.3825,-0.0095,0.036,0.0275,0.1275,-0.2555,0.073,-0.004,-0.078
-0.503,0.0605,0.5635,0.221,-0.533,0.3115,0.382,-0.007,0.033,0.0225,0.1245,-0.259,0.0705,0.0005,-0.0755
-0.499,0.063,0.562,0.218,-0.5305,0.3125,0.3785,-0.0135,0.0275,0.0175,0.119,-0.263,0.069,-0.0015,-0.0735
-0.507,0.0665,0.5735,0.22,-0.54,0.32,0.3805,-0.0185,0.027,0.0165,0.1195,-0.2605,0.069,0.01,-0.071
-0.5275,0.07,0.598,0.2285,-0.563,0.3335,0.3845,-0.015,0.031,0.018,0.1225,-0.258,0.067,0.0175,-0.068
-0.5395,0.065,0.6045,0.237,-0.572,0.3345,0.3845,-0.0165,0.0265,0.015,0.117,-0.262,0.0615,0.0065,-0.0685
-0.5325,0.0645,0.597,0.234,-0.5645,0.3305,0.382,-0.02,0.0215,0.0095,0.112,-0.266,0.0605,-0.001,-0.068
-0.526,0.0625,0.588,0.2315,-0.557,0.325,0.38,-0.024,0.017,0.0035,0.1065,-0.2705,0.0575,-0.0115,-0.066
-0.5175,0.059,0.5765,0.229,-0.547,0.3175,0.3735,-0.0335,0.007,-0.0045,0.0975,-0.278,0.0545,-0.0265,-0.0645
-0.5115,0.0645,0.5755,0.2235,-0.5435,0.3195,0.3695,-0.036,0.0035,-0.0095,0.093,-0.284,0.053,-0.0205,-0.0645
-0.5045,0.0665,0.5705,0.2185,-0.537,0.318,0.371,-0.0315,0.0065,-0.0085,0.096,-0.281,0.0565,-0.007,-0.0645
-0.51,0.0635,0.5735,0.223,-0.5415,0.3185,0.374,-0.03,0.0065,-0.0085,0.0965,-0.28,0.056,-0.015,-0.065
-0.529,0.0585,0.5875,0.235,-0.558,0.3225,0.378,-0.028,0.007,-0.007,0.096,-0.2795,0.0525,-0.0235,-0.064
-0.527,0.0615,0.5885,0.2325,-0.5575,0.325,0.381,-0.0245,0.009,-0.005,0.097,-0.2775,0.0545,-0.0165,-0.063
-0.5275,0.0645,0.5915,0.2315,-0.5595,0.328,0.381,-0.0275,0.0065,-0.007,0.095,-0.2815,0.052,-0.0195,-0.061
-0.53,0.059,0.589,0.2355,-0.5595,0.3235,0.3795,-0.0315,0.0025,-0.0115,0.092,-0.284,0.051,-0.034,-0.06
-0.52,0.0555,0.5755,0.232,-0.5475,0.315,0.3775,-0.0355,-0.0015,-0.016,0.087,-0.2895,0.05,-0.0425,-0.059
-0.51,0.058,0.568,0.226,-0.539,0.3125,0.372,-0.042,-0.0075,-0.0215,0.0795,-0.2955,0.0485,-0.0305,-0.0545
-0.5045,0.0605,0.565,0.222,-0.535,0.312,0.3715,-0.0415,-0.0065,-0.0235,0.079,-0.2955,0.0505,-0.0235,-0.0565
-0.5145,0.06,0.574,0.227,-0.5445,0.317,0.378,-0.0345,-0.001,-0.0175,0.085,-0.289,0.0525,-0.029,-0.0575
-0.526,0.061,0.5865,0.2325,-0.5565,0.3235,0.3795,-0.035,-0.0015,-0.017,0.0855,-0.288,0.051,-0.0335,-0.056
-0.5155,0.0605,0.576,0.227,-0.5455,0.318,0.3745,-0.04,-0.006,-0.023,0.08,-0.294,0.049,-0.0365,-0.0555
-0.5175,0.0605,0.578,0.2285,-0.548,0.319,0.375,-0.04,-0.006,-0.0225,0.078,-0.294,0.048,-0.0375,-0.0535
-0.5195,0.0625,0.5815,0.2285,-0.5505,0.3215,0.376,-0.0405,-0.006,-0.0225,0.079,-0.295,0.0485,-0.0425,-0.0525
-0.505,0.0675,0.5725,0.2185,-0.539,0.32,0.3715,-0.043,-0.011,-0.026,0.075,-0.299,0.051,-0.034,-0.052
-0.4995,0.069,0.5685,0.215,-0.534,0.3185,0.3665,-0.0465,-0.014,-0.0315,0.07,-0.304,0.05,-0.0265,-0.0525
-0.4965,0.0665,0.563,0.215,-0.5295,0.3145,0.3675,-0.0485,-0.014,-0.0335,0.0685,-0.3065,0.0465,-0.033,-0.057
-0.5105,0.064,0.574,0.223,-0.542,0.3185,0.3725,-0.044,-0.011,-0.0285,0.072,-0.3015,0.046,-0.0415,-0.0585
-0.5255,0.067,0.592,0.229,-0.5585,0.329,0.3765,-0.0395,-0.006,-0.0235,0.076,-0.2975,0.048,-0.045,-0.057
-0.5355,0.0735,0.609,0.2305,-0.572,0.341,0.38,-0.038,-0.002,-0.0205,0.0795,-0.2935,0.049,-0.0345,-0.056
-0.5565,0.068,0.6245,0.244,-0.5905,0.346,0.3865,-0.033,0.003,-0.0155,0.084,-0.289,0.0465,-0.049,-0.0575
-0.583,0.0645,0.6475,0.259,-0.615,0.3555,0.394,-0.0285,0.007,-0.011,0.086,-0.2865,0.0425,-0.068,-0.0605
-0.5975,0.065,0.662,0.266,-0.63,0.363,0.4005,-0.024,0.013,-0.007,0.092,-0.282,0.0425,-0.061,-0.06
-0.569,0.0635,0.632,0.2525,-0.6005,0.3475,0.3915,-0.03,0.007,-0.0135,0.0865,-0.288,0.045,-0.059,-0.059
-0.498,0.067,0.565,0.215,-0.5315,0.316,0.369,-0.052,-0.016,-0.0345,0.0635,-0.308,0.0465,-0.0565,-0.0595
-0.456,0.0655,0.5215,0.195,-0.4885,0.293,0.3595,-0.0645,-0.0275,-0.0455,0.052,-0.3205,0.047,-0.0635,-0.061
-0.4655,0.0635,0.5285,0.2005,-0.497,0.2955,0.363,-0.0615,-0.0235,-0.041,0.057,-0.316,0.0485,-0.0645,-0.061
-0.4965,0.066,0.5625,0.215,-0.5295,0.314,0.374,-0.0505,-0.0135,-0.0315,0.0675,-0.3075,0.0475,-0.06,-0.064
-0.518,0.062,0.58,0.228,-0.549,0.3205,0.3815,-0.0435,-0.008,-0.026,0.0715,-0.304,0.044,-0.073,-0.067
-0.5155,0.061,0.5765,0.2275,-0.546,0.3185,0.385,-0.042,-0.006,-0.024,0.0735,-0.2995,0.0475,-0.072,-0.065
-0.5175,0.063,0.5805,0.2275,-0.549,0.3215,0.3835,-0.044,-0.008,-0.0255,0.0745,-0.3,0.047,-0.074,-0.064
-0.51,0.0625,0.572,0.2235,-0.541,0.317,0.378,-0.05,-0.011,-0.0285,0.071,-0.305,0.0455,-0.083,-0.062
-0.5055,0.0665,0.572,0.2195,-0.539,0.319,0.376,-0.052,-0.011,-0.0285,0.072,-0.304,0.046,-0.0785,-0.062
-0.5115,0.0705,0.582,0.2205,-0.547,0.326,0.379,-0.0475,-0.01,-0.0285,0.0725,-0.3035,0.0465,-0.076,-0.061
-0.5155,0.071,0.587,0.222,-0.5515,0.329,0.382,-0.044,-0.0055,-0.0265,0.076,-0.302,0.0475,-0.0755,-0.0615
-0.5265,0.0705,0.597,0.228,-0.5615,0.3335,0.3825,-0.0445,-0.0055,-0.0245,0.077,-0.3,0.0465,-0.0715,-0.0625
-0.523,0.072,0.595,0.225,-0.559,0.3335,0.3805,-0.045,-0.006,-0.024,0.0755,-0.3,0.0485,-0.0735,-0.062
-0.5085,0.074,0.5825,0.217,-0.5455,0.328,0.3795,-0.0435,-0.0055,-0.023,0.076,-0.299,0.0525,-0.078,-0.0625
-0.502,0.0735,0.5755,0.214,-0.539,0.324,0.379,-0.0475,-0.009,-0.0265,0.073,-0.302,0.0515,-0.078,-0.0615
-0.513,0.067,0.5795,0.223,-0.546,0.323,0.378,-0.051,-0.0105,-0.028,0.072,-0.305,0.046,-0.087,-0.0655
-0.528,0.062,0.5895,0.233,-0.559,0.3255,0.3855,-0.045,-0.006,-0.0215,0.078,-0.2995,0.0475,-0.0975,-0.068
-0.536,0.0655,0.601,0.235,-0.5685,0.333,0.3925,-0.039,0.001,-0.0155,0.086,-0.2905,0.051,-0.0955,-0.067
-0.541,0.0665,0.6075,0.237,-0.574,0.3365,0.3925,-0.037,0.0045,-0.0125,0.0875,-0.2885,0.0515,-0.0955,-0.068
-0.538,0.0665,0.605,0.2355,-0.5715,0.3355,0.3935,-0.0365,0.003,-0.0135,0.0885,-0.2895,0.0515,-0.098,-0.068
-0.546,0.0665,0.613,0.2395,-0.5795,0.3395,0.398,-0.0325,0.008,-0.0085,0.0935,-0.285,0.053,-0.099,-0.066
-0.552,0.07,0.622,0.241,-0.587,0.3455,0.4015,-0.029,0.0135,-0.004,0.098,-0.2795,0.056,-0.099,-0.068
-0.5405,0.074,0.615,0.233,-0.578,0.3445,0.398,-0.03,0.0115,-0.006,0.0985,-0.2795,0.06,-0.097,-0.0675
-0.532,0.074,0.606,0.2285,-0.569,0.34,0.3935,-0.034,0.008,-0.009,0.094,-0.2845,0.0575,-0.0945,-0.0665
-0.513,0.074,0.5875,0.219,-0.55,0.3305,0.3865,-0.0425,0.0025,-0.016,0.087,-0.29,0.057,-0.101,-0.07
-0.49,0.0785,0.5685,0.2055,-0.5295,0.3235,0.3805,-0.045,-0.001,-0.0175,0.0855,-0.292,0.062,-0.1,-0.069
-0.494,0.082,0.576,0.2055,-0.535,0.329,0.3815,-0.044,0.001,-0.017,0.0885,-0.2895,0.0625,-0.1005,-0.0675
-0.4995,0.085,0.584,0.207,-0.5415,0.334,0.382,-0.042,0.004,-0.015,0.0905,-0.286,0.066,-0.105,-0.067
-0.5025,0.094,0.597,0.204,-0.5495,0.345,0.3845,-0.036,0.0105,-0.0065,0.098,-0.2795,0.0705,-0.084,-0.064
-0.513,0.098,0.6115,0.207,-0.5625,0.3545,0.3875,-0.032,0.0155,-0.0015,0.104,-0.2745,0.0715,-0.076,-0.066
-0.515,0.096,0.611,0.2095,-0.563,0.353,0.386,-0.0335,0.013,-0.0025,0.102,-0.2765,0.073,-0.0865,-0.069
-0.51,0.0985,0.6085,0.2055,-0.5595,0.353,0.3825,-0.038,0.0115,-0.004,0.1005,-0.2785,0.074,-0.087,-0.068
-0.5035,0.101,0.604,0.201,-0.554,0.3525,0.38,-0.04,0.013,-0.0035,0.1015,-0.277,0.076,-0.082,-0.069
-0.5015,0.103,0.604,0.199,-0.5525,0.353,0.3795,-0.039,0.014,-0.0015,0.104,-0.2735,0.08,-0.08,-0.066
-0.511,0.1045,0.616,0.203,-0.5635,0.36,0.3795,-0.0395,0.015,0.0005,0.106,-0.2715,0.079,-0.083,-0.064
-0.5235,0.107,0.63,0.208,-0.5765,0.3685,0.379,-0.039,0.0165,0.004,0.1085,-0.2705,0.0795,-0.0885,-0.0655
-0.5095,0.1125,0.622,0.1985,-0.566,0.367,0.376,-0.037,0.0195,0.01,0.1135,-0.264,0.088,-0.079,-0.063
-0.515,0.112,0.627,0.201,-0.571,0.3695,0.377,-0.0325,0.025,0.0175,0.1195,-0.2585,0.091,-0.0835,-0.0635
-0.5225,0.116,0.6385,0.203,-0.5805,0.377,0.378,-0.0305,0.0285,0.0205,0.124,-0.2555,0.091,-0.085,-0.0635
-0.5125,0.125,0.6375,0.194,-0.575,0.381,0.3795,-0.027,0.0335,0.0255,0.129,-0.249,0.0955,-0.0665,-0.0615
-0.5165,0.125,0.641,0.1955,-0.579,0.3825,0.381,-0.0255,0.035,0.0285,0.1325,-0.2465,0.095,-0.08,-0.0635
-0.507,0.1285,0.6355,0.189,-0.571,0.382,0.377,-0.029,0.034,0.026,0.131,-0.2475,0.098,-0.0835,-0.0635
-0.5055,0.1355,0.641,0.185,-0.5735,0.388,0.3785,-0.0265,0.0385,0.031,0.135,-0.244,0.103,-0.07,-0.062
-0.508,0.142,0.65,0.183,-0.579,0.3955,0.3805,-0.028,0.04,0.0325,0.138,-0.2415,0.104,-0.066,-0.063
-0.5025,0.147,0.6495,0.1775,-0.576,0.398,0.379,-0.0305,0.039,0.033,0.138,-0.243,0.1045,-0.0655,-0.0635
-0.4995,0.15,0.6495,0.1745,-0.5745,0.3995,0.38,-0.0285,0.0425,0.037,0.1415,-0.2385,0.108,-0.0655,-0.064
-0.511,0.161,0.672,0.175,-0.5915,0.4165,0.382,-0.0255,0.0475,0.0425,0.1485,-0.232,0.1115,-0.0545,-0.062
-0.509,0.1695,0.6785,0.1695,-0.594,0.424,0.378,-0.028,0.047,0.044,0.15,-0.2305,0.114,-0.0505,-0.0585
-0.474,0.172,0.646,0.151,-0.56,0.409,0.3655,-0.04,0.038,0.034,0.1415,-0.24,0.1175,-0.054,-0.058
-0.467,0.1765,0.644,0.145,-0.5555,0.41,0.359,-0.0455,0.0355,0.0325,0.1395,-0.2425,0.12,-0.048,-0.055
-0.482,0.182,0.664,0.1495,-0.573,0.423,0.361,-0.039,0.043,0.041,0.1475,-0.2325,0.124,-0.0455,-0.0545
-0.4885,0.1885,0.6765,0.15,-0.5825,0.432,0.3635,-0.0355,0.0465,0.0455,0.1525,-0.2275,0.1275,-0.042,-0.059
-0.4925,0.1865,0.679,0.153,-0.586,0.4325,0.362,-0.036,0.046,0.0465,0.1525,-0.2255,0.1285,-0.045,-0.0575
-0.4905,0.1835,0.674,0.1535,-0.5825,0.4285,0.36,-0.0375,0.046,0.046,0.153,-0.225,0.129,-0.052,-0.0545
-0.484,0.1835,0.6675,0.15,-0.576,0.425,0.3565,-0.042,0.043,0.044,0.153,-0.226,0.1315,-0.059,-0.055
-0.474,0.1795,0.6535,0.147,-0.564,0.4165,0.344,-0.049,0.0355,0.038,0.148,-0.2305,0.1325,-0.065,-0.051
-0.4675,0.1775,0.645,0.1445,-0.556,0.411,0.3345,-0.054,0.034,0.037,0.149,-0.2295,0.135,-0.065,-0.0465
-0.471,0.174,0.6455,0.148,-0.5585,0.4095,0.3305,-0.053,0.037,0.0415,0.153,-0.2245,0.139,-0.07,-0.046
-0.475,0.174,0.649,0.1505,-0.5625,0.4115,0.327,-0.051,0.039,0.0435,0.1555,-0.2215,0.14,-0.0765,-0.0455
-0.474,0.174,0.648,0.15,-0.5615,0.411,0.3235,-0.052,0.04,0.0465,0.1585,-0.218,0.143,-0.077,-0.043
-0.4695,0.1755,0.645,0.1465,-0.5575,0.41,0.317,-0.0535,0.04,0.0475,0.163,-0.2145,0.147,-0.074,-0.0375
-0.4675,0.1795,0.6475,0.1435,-0.5575,0.4135,0.3105,-0.056,0.039,0.049,0.1645,-0.2105,0.1495,-0.0705,-0.0325
-0.466,0.185,0.6515,0.14,-0.559,0.418,0.308,-0.0575,0.041,0.054,0.1715,-0.2045,0.154,-0.0665,-0.0265
-0.481,0.19,0.6715,0.1455,-0.576,0.4305,0.3095,-0.052,0.048,0.0625,0.1805,-0.195,0.157,-0.063,-0.025
-0.49,0.1955,0.6855,0.147,-0.588,0.44,0.311,-0.0495,0.0525,0.068,0.184,-0.1895,0.1605,-0.056,-0.0255
-0.4835,0.2015,0.6855,0.1405,-0.5845,0.4435,0.3125,-0.051,0.052,0.067,0.1855,-0.1875,0.165,-0.057,-0.024
-0.472,0.2005,0.673,0.1355,-0.5725,0.4365,0.3075,-0.057,0.044,0.0605,0.1795,-0.1925,0.164,-0.0685,-0.0235
-0.446,0.2005,0.6465,0.1225,-0.5465,0.4235,0.299,-0.0645,0.036,0.0515,0.173,-0.201,0.165,-0.0725,-0.022
-0.4375,0.2035,0.641,0.1165,-0.5395,0.422,0.297,-0.066,0.0335,0.0505,0.173,-0.2005,0.1665,-0.0695,-0.021
-0.4505,0.201,0.651,0.1245,-0.551,0.4255,0.2975,-0.065,0.0335,0.053,0.176,-0.1965,0.167,-0.069,-0.0185
-0.459,0.197,0.6555,0.131,-0.557,0.426,0.3,-0.065,0.0335,0.0525,0.178,-0.195,0.1655,-0.075,-0.0155
-0.45,0.199,0.649,0.1255,-0.5495,0.4235,0.295,-0.072,0.028,0.0495,0.174,-0.196,0.1645,-0.077,-0.013
-0.4435,0.199,0.6425,0.122,-0.543,0.4205,0.285,-0.0815,0.023,0.045,0.1705,-0.2005,0.1655,-0.0705,-0.009
-0.4305,0.2045,0.635,0.113,-0.533,0.4195,0.2765,-0.087,0.0205,0.043,0.17,-0.1995,0.169,-0.065,-0.0005
-0.4145,0.213,0.6275,0.1005,-0.521,0.42,0.2695,-0.091,0.017,0.0405,0.169,-0.198,0.1725,-0.061,0.005
-0.4305,0.2035,0.634,0.113,-0.5325,0.4185,0.272,-0.094,0.0135,0.038,0.167,-0.1995,0.1665,-0.0705,0.0065
-0.4525,0.191,0.6435,0.1305,-0.548,0.417,0.2825,-0.0885,0.0145,0.0405,0.1705,-0.196,0.163,-0.088,0.0065
-0.4535,0.187,0.6405,0.133,-0.547,0.4135,0.2825,-0.0885,0.014,0.039,0.1705,-0.197,0.162,-0.089,0.007
-0.448,0.1775,0.626,0.135,-0.537,0.4015,0.281,-0.0935,0.0065,0.03,0.163,-0.202,0.1585,-0.098,0.009
-0.4575,0.167,0.6245,0.145,-0.541,0.3955,0.282,-0.0955,0.0035,0.027,0.1595,-0.2045,0.152,-0.1075,0.009
-0.4605,0.1615,0.622,0.1495,-0.541,0.3915,0.28,-0.1,-0.0005,0.0235,0.157,-0.207,0.1495,-0.1075,0.0135
-0.459,0.157,0.616,0.151,-0.5375,0.386,0.2805,-0.101,-0.0045,0.02,0.155,-0.2085,0.148,-0.115,0.015
-0.469,0.152,0.621,0.1585,-0.545,0.3865,0.282,-0.101,-0.006,0.018,0.153,-0.209,0.1425,-0.1205,0.016
-0.4775,0.1455,0.623,0.166,-0.5505,0.384,0.2895,-0.099,-0.0065,0.0155,0.153,-0.211,0.1385,-0.124,0.013
-0.472,0.1455,0.618,0.163,-0.545,0.3815,0.2965,-0.0935,-0.0025,0.0175,0.1535,-0.2105,0.138,-0.1235,0.0065
-0.471,0.1505,0.6215,0.16,-0.546,0.3855,0.3025,-0.088,-0.0005,0.022,0.1565,-0.206,0.1415,-0.1245,0.0075
-0.4855,0.15,0.635,0.1675,-0.5605,0.3925,0.31,-0.086,0.002,0.022,0.159,-0.204,0.14,-0.1345,0.0035
-0.4825,0.155,0.637,0.1635,-0.5595,0.396,0.3085,-0.089,-0.0025,0.019,0.156,-0.2075,0.14,-0.1335,0.0035
-0.4675,0.1605,0.628,0.153,-0.5475,0.394,0.3045,-0.092,-0.0075,0.0155,0.153,-0.2105,0.141,-0.1215,0.005
-0.428,0.162,0.59,0.133,-0.509,0.3755,0.296,-0.1055,-0.0195,0.0025,0.14,-0.2225,0.142,-0.128,0.0035
-0.411,0.165,0.5755,0.123,-0.4935,0.37,0.2905,-0.1115,-0.0255,-0.001,0.136,-0.2265,0.146,-0.1325,0.0025
-0.4255,0.1675,0.5935,0.129,-0.5095,0.38,0.2965,-0.102,-0.0155,0.0085,0.1455,-0.216,0.15,-0.134,-0.0015
-0.434,0.1705,0.605,0.1315,-0.5195,0.3875,0.2995,-0.096,-0.007,0.0165,0.154,-0.2075,0.1565,-0.1335,-0.003
-0.4385,0.171,0.609,0.1335,-0.5235,0.39,0.305,-0.0905,-0.0005,0.0235,0.161,-0.2005,0.1595,-0.1345,-0.003
-0.435,0.1695,0.6045,0.1325,-0.5195,0.387,0.31,-0.087,0.001,0.0255,0.1625,-0.1975,0.163,-0.1475,-0.006
-0.4395,0.1655,0.6045,0.1365,-0.522,0.385,0.3125,-0.084,0.0045,0.0245,0.165,-0.197,0.1645,-0.15,-0.0085
-0.4365,0.1565,0.593,0.14,-0.5145,0.3745,0.319,-0.0825,0.004,0.0235,0.1635,-0.1985,0.1615,-0.1605,-0.0105
-0.4285,0.1495,0.578,0.1395,-0.5035,0.3635,0.3195,-0.084,-0.0015,0.018,0.1585,-0.202,0.1605,-0.1645,-0.0115
-0.4135,0.1445,0.5585,0.134,-0.486,0.3515,0.3155,-0.0885,-0.0075,0.0125,0.1535,-0.2055,0.161,-0.1675,-0.0115
-0.4065,0.1405,0.547,0.1325,-0.4765,0.3435,0.3165,-0.089,-0.01,0.0095,0.1515,-0.2065,0.1605,-0.178,-0.015
-0.4175,0.1365,0.554,0.14,-0.486,0.345,0.3225,-0.0855,-0.005,0.013,0.157,-0.202,0.16,-0.185,-0.0175
-0.4285,0.1365,0.565,0.146,-0.4965,0.3505,0.328,-0.0795,0.0015,0.0215,0.164,-0.1945,0.163,-0.1835,-0.018
-0.436,0.139,0.575,0.1485,-0.5055,0.3565,0.3335,-0.0725,0.008,0.028,0.171,-0.187,0.167,-0.1765,-0.0185
-0.446,0.142,0.588,0.1515,-0.517,0.365,0.3405,-0.066,0.0135,0.0345,0.177,-0.182,0.167,-0.17,-0.021
-0.441,0.136,0.577,0.1525,-0.509,0.356,0.343,-0.062,0.014,0.0325,0.1755,-0.1835,0.1685,-0.178,-0.026
-0.421,0.128,0.549,0.146,-0.4845,0.338,0.3405,-0.068,0.007,0.024,0.17,-0.1885,0.1685,-0.1925,-0.027
-0.408,0.124,0.5315,0.142,-0.4695,0.3275,0.336,-0.08,-0.003,0.0125,0.158,-0.201,0.1625,-0.1975,-0.028
-0.4155,0.116,0.5315,0.1495,-0.4735,0.3235,0.3425,-0.08,-0.0055,0.0085,0.153,-0.205,0.157,-0.2055,-0.031
-0.433,0.113,0.546,0.1595,-0.4895,0.3295,0.3535,-0.074,-0.002,0.012,0.1555,-0.2035,0.1525,-0.209,-0.0365
-0.448,0.106,0.554,0.1705,-0.501,0.33,0.363,-0.068,0.003,0.013,0.154,-0.2045,0.1495,-0.218,-0.045
-0.4675,0.1,0.5675,0.1835,-0.5175,0.3335,0.3775,-0.0575,0.0095,0.019,0.158,-0.203,0.1455,-0.217,-0.0515
-0.475,0.096,0.5715,0.189,-0.523,0.3335,0.3845,-0.055,0.011,0.019,0.158,-0.2035,0.142,-0.2255,-0.057
-0.478,0.0915,0.5695,0.193,-0.5235,0.33,0.386,-0.057,0.0095,0.0155,0.156,-0.207,0.14,-0.2325,-0.0605
-0.476,0.0925,0.5685,0.1915,-0.5225,0.3305,0.386,-0.053,0.01,0.017,0.1555,-0.206,0.141,-0.224,-0.057
-0.4765,0.0945,0.571,0.1905,-0.5235,0.332,0.387,-0.0495,0.0105,0.0175,0.157,-0.2035,0.1425,-0.2275,-0.054
-0.4855,0.096,0.5815,0.1945,-0.5335,0.3385,0.389,-0.0545,0.011,0.0185,0.159,-0.205,0.14,-0.2265,-0.055
-0.49,0.0955,0.585,0.197,-0.5375,0.34,0.395,-0.053,0.0155,0.021,0.161,-0.201,0.1395,-0.2215,-0.0585
-0.5,0.088,0.588,0.206,-0.544,0.3375,0.402,-0.049,0.017,0.0215,0.161,-0.201,0.1365,-0.23,-0.0625
-0.504,0.086,0.59,0.2085,-0.547,0.3375,0.405,-0.0475,0.018,0.0235,0.16,-0.203,0.1355,-0.2305,-0.0635
-0.499,0.088,0.5865,0.205,-0.543,0.337,0.404,-0.0485,0.0175,0.022,0.1595,-0.204,0.134,-0.227,-0.064
-0.4995,0.086,0.586,0.2065,-0.543,0.3355,0.404,-0.048,0.014,0.0165,0.156,-0.207,0.1305,-0.2345,-0.064
-0.5005,0.082,0.582,0.209,-0.541,0.332,0.405,-0.0495,0.012,0.0125,0.152,-0.211,0.128,-0.242,-0.064
-0.4925,0.078,0.571,0.207,-0.532,0.3245,0.4035,-0.054,0.0055,0.0055,0.147,-0.218,0.124,-0.242,-0.0645
-0.4915,0.078,0.5695,0.2065,-0.5305,0.3235,0.405,-0.052,0.005,0.0045,0.1445,-0.219,0.1205,-0.2385,-0.0675
-0.5025,0.073,0.575,0.2145,-0.539,0.324,0.4075,-0.0495,0.008,0.007,0.1455,-0.2185,0.119,-0.248,-0.069
-0.4995,0.072,0.5715,0.2135,-0.5355,0.322,0.408,-0.0505,0.0065,0.0055,0.144,-0.219,0.119,-0.248,-0.0675
-0.508,0.069,0.577,0.219,-0.5425,0.323,0.407,-0.0545,0.004,0.0025,0.142,-0.222,0.114,-0.251,-0.067
-0.504,0.066,0.57,0.219,-0.537,0.318,0.4045,-0.0595,-0.001,-0.004,0.137,-0.227,0.1115,-0.2575,-0.0655
-0.496,0.067,0.563,0.214,-0.5295,0.315,0.403,-0.0615,-0.004,-0.0075,0.133,-0.23,0.1115,-0.2635,-0.0685
-0.509,0.066,0.575,0.221,-0.542,0.3205,0.405,-0.0605,-0.003,-0.0065,0.1345,-0.2285,0.1075,-0.273,-0.072
-0.499,0.068,0.567,0.2155,-0.533,0.3175,0.4035,-0.0625,-0.004,-0.009,0.1325,-0.229,0.108,-0.27,-0.07
-0.508,0.0695,0.5775,0.219,-0.543,0.3235,0.406,-0.059,0.0,-0.006,0.1355,-0.2275,0.108,-0.266,-0.068
-0.508,0.066,0.574,0.221,-0.541,0.32,0.405,-0.0585,-0.004,-0.0095,0.1325,-0.231,0.104,-0.2755,-0.0745
-0.489,0.064,0.553,0.212,-0.521,0.308,0.4005,-0.0655,-0.012,-0.017,0.123,-0.24,0.101,-0.284,-0.078
-0.4915,0.064,0.5555,0.2135,-0.5235,0.3095,0.403,-0.0665,-0.0125,-0.019,0.121,-0.241,0.0995,-0.288,-0.076
-0.498,0.0565,0.5545,0.2205,-0.5265,0.3055,0.403,-0.069,-0.0155,-0.024,0.1165,-0.2455,0.094,-0.2995,-0.08
-0.5085,0.054,0.5625,0.2265,-0.5355,0.308,0.408,-0.0655,-0.013,-0.022,0.118,-0.2435,0.0915,-0.3005,-0.0835
-0.512,0.0535,0.5655,0.229,-0.5385,0.309,0.411,-0.064,-0.012,-0.022,0.119,-0.242,0.09,-0.303,-0.085
-0.506,0.051,0.557,0.227,-0.5315,0.304,0.4055,-0.0675,-0.0175,-0.0275,0.114,-0.247,0.0875,-0.304,-0.0845
-0.5055,0.0475,0.5525,0.2285,-0.529,0.3,0.4085,-0.069,-0.0205,-0.0315,0.111,-0.251,0.0845,-0.31,-0.0835
-0.496,0.046,0.542,0.2245,-0.519,0.294,0.408,-0.073,-0.0245,-0.037,0.104,-0.2555,0.0815,-0.316,-0.084
-0.5055,0.0465,0.552,0.2295,-0.529,0.299,0.412,-0.0675,-0.0215,-0.033,0.1075,-0.252,0.08,-0.32,-0.0855
-0.5135,0.0465,0.56,0.233,-0.5365,0.303,0.4185,-0.0625,-0.016,-0.029,0.112,-0.249,0.08,-0.318,-0.084
-0.4955,0.051,0.5465,0.222,-0.521,0.2985,0.411,-0.068,-0.0215,-0.036,0.106,-0.254,0.0795,-0.3125,-0.0835
-0.491,0.048,0.5395,0.2215,-0.5155,0.294,0.41,-0.0715,-0.025,-0.041,0.1025,-0.259,0.076,-0.3245,-0.0855
-0.488,0.049,0.537,0.2195,-0.5125,0.2925,0.412,-0.069,-0.0215,-0.0385,0.1035,-0.256,0.0795,-0.324,-0.0835
-0.494,0.0505,0.5445,0.2215,-0.5195,0.297,0.4115,-0.0695,-0.02,-0.0365,0.106,-0.254,0.08,-0.3195,-0.082
-0.489,0.0525,0.5415,0.218,-0.515,0.2965,0.4085,-0.0715,-0.0215,-0.038,0.1045,-0.2555,0.08,-0.3155,-0.08
-0.486,0.0545,0.541,0.2155,-0.5135,0.2975,0.4085,-0.0705,-0.021,-0.039,0.104,-0.2555,0.08,-0.3145,-0.079
-0.496,0.053,0.5495,0.2215,-0.523,0.301,0.4095,-0.0725,-0.0225,-0.0395,0.103,-0.258,0.077,-0.3235,-0.0795
-0.498,0.0525,0.5505,0.2225,-0.5245,0.301,0.409,-0.074,-0.024,-0.0405,0.101,-0.2585,0.076,-0.3295,-0.079
-0.4945,0.051,0.545,0.2215,-0.52,0.298,0.409,-0.074,-0.024,-0.042,0.101,-0.26,0.0755,-0.3295,-0.0795
-0.4915,0.055,0.5465,0.218,-0.519,0.3005,0.407,-0.072,-0.0235,-0.0395,0.1015,-0.258,0.078,-0.325,-0.081
-0.5005,0.0575,0.5575,0.221,-0.529,0.307,0.4085,-0.0685,-0.0195,-0.0355,0.1055,-0.2545,0.078,-0.315,-0.0775
-0.5005,0.057,0.558,0.2215,-0.529,0.307,0.409,-0.069,-0.018,-0.0355,0.107,-0.2545,0.078,-0.321,-0.079
-0.5005,0.057,0.5575,0.2215,-0.529,0.307,0.4055,-0.0705,-0.02,-0.037,0.105,-0.2555,0.078,-0.3295,-0.081
-0.4995,0.054,0.5535,0.2225,-0.5265,0.3035,0.4055,-0.07,-0.0195,-0.0385,0.1055,-0.256,0.077,-0.324,-0.08
-0.4975,0.0485,0.5455,0.2245,-0.5215,0.2965,0.405,-0.072,-0.0205,-0.041,0.103,-0.2565,0.0775,-0.3385,-0.0825
-0.5115,0.0445,0.5565,0.233,-0.534,0.3005,0.406,-0.0715,-0.0195,-0.038,0.1035,-0.2555,0.076,-0.3445,-0.08
-0.5215,0.046,0.5675,0.237,-0.5445,0.307,0.4095,-0.068,-0.0155,-0.034,0.108,-0.252,0.076,-0.3385,-0.0795
-0.52,0.0495,0.5695,0.235,-0.5445,0.309,0.4105,-0.0665,-0.015,-0.034,0.108,-0.2505,0.0775,-0.3355,-0.0805
-0.527,0.0505,0.5775,0.238,-0.552,0.314,0.413,-0.0635,-0.011,-0.0335,0.112,-0.249,0.0775,-0.3375,-0.0795
-0.541,0.047,0.588,0.2465,-0.5645,0.3175,0.419,-0.0575,-0.0035,-0.028,0.116,-0.2435,0.0775,-0.3435,-0.081
-0.5465,0.048,0.594,0.249,-0.57,0.321,0.4175,-0.058,-0.005,-0.027,0.1155,-0.2435,0.076,-0.342,-0.083
-0.5365,0.046,0.5825,0.245,-0.5595,0.314,0.4115,-0.0645,-0.01,-0.0315,0.112,-0.2485,0.0755,-0.349,-0.0825
-0.515,0.0465,0.562,0.234,-0.5385,0.304,0.4055,-0.0695,-0.0155,-0.037,0.104,-0.255,0.0765,-0.3525,-0.082
-0.4945,0.0525,0.547,0.221,-0.521,0.2995,0.3975,-0.078,-0.0235,-0.046,0.098,-0.263,0.0765,-0.3475,-0.0795
-0.491,0.0545,0.545,0.218,-0.518,0.2995,0.3955,-0.0785,-0.024,-0.046,0.098,-0.2615,0.079,-0.344,-0.078
-0.4915,0.058,0.5495,0.2165,-0.5205,0.3035,0.3955,-0.0765,-0.022,-0.0425,0.0995,-0.2605,0.079,-0.341,-0.079
-0.4865,0.0575,0.5435,0.2145,-0.515,0.3,0.394,-0.0795,-0.026,-0.048,0.095,-0.265,0.0765,-0.348,-0.077
-0.486,0.0585,0.5445,0.2135,-0.5155,0.3015,0.3945,-0.0785,-0.0265,-0.049,0.094,-0.266,0.0765,-0.347,-0.0785
-0.49,0.0635,0.553,0.213,-0.5215,0.3075,0.3955,-0.077,-0.0235,-0.045,0.0965,-0.263,0.078,-0.3455,-0.079
-0.495,0.0625,0.5575,0.2165,-0.5265,0.3095,0.395,-0.077,-0.023,-0.045,0.097,-0.263,0.076,-0.3485,-0.0775
-0.497,0.062,0.559,0.2175,-0.528,0.31,0.395,-0.0745,-0.02,-0.043,0.099,-0.2605,0.0765,-0.342,-0.0775
-0.5105,0.0615,0.572,0.224,-0.541,0.3165,0.3995,-0.072,-0.0185,-0.039,0.1005,-0.258,0.076,-0.3435,-0.077
-0.53,0.058,0.588,0.236,-0.559,0.3225,0.4045,-0.0685,-0.013,-0.036,0.105,-0.254,0.075,-0.353,-0.0755
-0.5335,0.059,0.5925,0.237,-0.563,0.3255,0.409,-0.0645,-0.007,-0.031,0.1105,-0.248,0.0775,-0.3545,-0.076
-0.534,0.0575,0.5915,0.238,-0.5625,0.3245,0.4095,-0.064,-0.0075,-0.0305,0.1085,-0.249,0.076,-0.354,-0.0785
-0.523,0.055,0.578,0.234,-0.5505,0.316,0.403,-0.07,-0.0115,-0.037,0.1035,-0.2525,0.0755,-0.361,-0.0765
-0.502,0.055,0.557,0.223,-0.5295,0.3055,0.3985,-0.0765,-0.018,-0.041,0.0975,-0.259,0.0755,-0.367,-0.078
-0.475,0.053,0.528,0.211,-0.5015,0.29,0.392,-0.083,-0.024,-0.048,0.09,-0.267,0.076,-0.3685,-0.08
-0.476,0.0545,0.5305,0.2105,-0.5035,0.2925,0.393,-0.0805,-0.021,-0.048,0.0915,-0.265,0.077,-0.3665,-0.078
-0.473,0.0545,0.527,0.209,-0.5,0.2905,0.3945,-0.079,-0.0205,-0.0455,0.092,-0.264,0.0785,-0.362,-0.0785
-0.461,0.052,0.513,0.2045,-0.487,0.282,0.3895,-0.0825,-0.026,-0.051,0.086,-0.2675,0.08,-0.3605,-0.08
-0.4755,0.048,0.5235,0.2135,-0.4995,0.2855,0.394,-0.0805,-0.0235,-0.0495,0.089,-0.2655,0.077,-0.3715,-0.0815
-0.478,0.049,0.527,0.214,-0.5025,0.288,0.399,-0.0765,-0.016,-0.044,0.0955,-0.26,0.0775,-0.368,-0.0815
-0.497,0.054,0.551,0.2215,-0.524,0.302,0.4045,-0.0695,-0.011,-0.0375,0.1005,-0.254,0.077,-0.3645,-0.081
-0.4995,0.0535,0.5525,0.223,-0.526,0.3025,0.404,-0.069,-0.011,-0.037,0.1005,-0.2535,0.077,-0.3695,-0.079
-0.4805,0.057,0.5375,0.2115,-0.5085,0.297,0.399,-0.0745,-0.017,-0.0425,0.095,-0.2595,0.0775,-0.365,-0.079
-0.4795,0.06,0.539,0.2095,-0.5095,0.299,0.3975,-0.0775,-0.0215,-0.0455,0.0925,-0.2625,0.076,-0.3675,-0.081
-0.4865,0.0595,0.5465,0.2135,-0.5165,0.3025,0.398,-0.076,-0.019,-0.045,0.093,-0.2625,0.0745,-0.3705,-0.082
-0.5065,0.062,0.568,0.222,-0.537,0.3145,0.404,-0.071,-0.0145,-0.0405,0.0995,-0.257,0.074,-0.374,-0.0835
-0.526,0.065,0.591,0.23,-0.5585,0.328,0.4125,-0.0635,-0.0055,-0.0315,0.107,-0.2495,0.0755,-0.3725,-0.0835
-0.5345,0.0615,0.596,0.236,-0.565,0.3285,0.413,-0.0625,-0.0045,-0.0295,0.107,-0.248,0.0745,-0.376,-0.0835
-0.528,0.059,0.587,0.234,-0.5575,0.3225,0.4065,-0.0675,-0.0085,-0.033,0.1035,-0.251,0.0735,-0.3715,-0.08
-0.505,0.064,0.569,0.2205,-0.537,0.3165,0.4,-0.073,-0.012,-0.038,0.0985,-0.256,0.074,-0.3555,-0.0805
-0.4995,0.055,0.5545,0.222,-0.527,0.3045,0.4005,-0.0765,-0.0145,-0.041,0.0945,-0.2595,0.0725,-0.3795,-0.086
-0.5005,0.055,0.5555,0.2225,-0.528,0.305,0.403,-0.075,-0.0125,-0.041,0.096,-0.258,0.0725,-0.3815,-0.087
-0.4885,0.061,0.549,0.2135,-0.5185,0.3045,0.398,-0.077,-0.0155,-0.0435,0.0935,-0.26,0.074,-0.365,-0.0865
-0.481,0.0565,0.537,0.212,-0.509,0.2965,0.3975,-0.08,-0.0175,-0.044,0.0895,-0.263,0.0735,-0.371,-0.087
-0.474,0.0575,0.5315,0.208,-0.503,0.294,0.3985,-0.0785,-0.018,-0.044,0.091,-0.2625,0.0745,-0.3695,-0.0865
-0.48,0.0545,0.5345,0.2125,-0.5075,0.294,0.3995,-0.0755,-0.014,-0.042,0.0935,-0.2605,0.074,-0.3735,-0.087
-0.493,0.056,0.549,0.2185,-0.521,0.3025,0.405,-0.073,-0.01,-0.0385,0.097,-0.256,0.074,-0.3775,-0.087
-0.499,0.0575,0.5565,0.2205,-0.5275,0.307,0.4075,-0.07,-0.008,-0.0375,0.1,-0.2525,0.0745,-0.3755,-0.0875
-0.4905,0.055,0.545,0.2175,-0.518,0.2995,0.405,-0.069,-0.009,-0.037,0.0995,-0.255,0.074,-0.37,-0.089
-0.4895,0.052,0.5415,0.2185,-0.5155,0.2965,0.408,-0.0685,-0.008,-0.037,0.098,-0.2545,0.074,-0.378,-0.09
-0.5,0.0485,0.5485,0.2255,-0.5245,0.298,0.408,-0.072,-0.0095,-0.0405,0.0955,-0.2595,0.07,-0.391,-0.0905
-0.501,0.048,0.549,0.226,-0.525,0.2985,0.4055,-0.0725,-0.0105,-0.0425,0.093,-0.2625,0.068,-0.3945,-0.0895
-0.5055,0.0485,0.5535,0.2285,-0.5295,0.301,0.411,-0.0665,-0.0045,-0.04,0.095,-0.2595,0.0665,-0.3975,-0.092
-0.5125,0.048,0.5605,0.232,-0.5365,0.304,0.4145,-0.061,0.0,-0.035,0.097,-0.257,0.068,-0.3975,-0.0945
-0.5085,0.0465,0.5555,0.2305,-0.532,0.301,0.4155,-0.056,0.004,-0.034,0.097,-0.258,0.067,-0.3955,-0.0975
-0.499,0.0485,0.5475,0.225,-0.5235,0.298,0.414,-0.059,0.0025,-0.0395,0.0925,-0.265,0.065,-0.3925,-0.1
-0.4975,0.05,0.5475,0.2235,-0.522,0.2985,0.4165,-0.054,0.006,-0.0365,0.0925,-0.262,0.068,-0.3905,-0.1015
-0.504,0.046,0.55,0.2285,-0.527,0.298,0.4245,-0.0425,0.019,-0.0305,0.0955,-0.261,0.066,-0.398,-0.108
-0.513,0.0445,0.558,0.234,-0.5355,0.301,0.43,-0.038,0.023,-0.029,0.095,-0.264,0.0625,-0.4045,-0.1115
-0.5185,0.044,0.5625,0.237,-0.5405,0.303,0.434,-0.033,0.027,-0.0275,0.0945,-0.2635,0.062,-0.4015,-0.1145
-0.5185,0.0455,0.564,0.2365,-0.541,0.3045,0.441,-0.026,0.0345,-0.024,0.097,-0.263,0.0625,-0.3985,-0.119
-0.523,0.048,0.571,0.237,-0.547,0.3095,0.453,-0.005,0.0525,-0.012,0.1035,-0.2595,0.065,-0.3965,-0.129
-0.53,0.0495,0.579,0.24,-0.5545,0.314,0.466,0.017,0.075,0.0005,0.107,-0.2575,0.0655,-0.396,-0.1435
-0.5355,0.0525,0.588,0.2415,-0.562,0.32,0.479,0.031,0.0855,0.0065,0.1095,-0.257,0.066,-0.4035,-0.151
-0.5445,0.0515,0.596,0.2465,-0.5705,0.3235,0.489,0.0355,0.084,0.0045,0.106,-0.2585,0.06,-0.4025,-0.1565
-0.535,0.051,0.5855,0.2415,-0.5605,0.318,0.482,0.013,0.059,-0.012,0.0945,-0.2695,0.055,-0.3925,-0.151
-0.5225,0.053,0.5755,0.2345,-0.549,0.314,0.4795,0.007,0.0465,-0.018,0.092,-0.2745,0.057,-0.396,-0.1505
-0.532,0.0575,0.5895,0.237,-0.561,0.3235,0.4925,0.0255,0.06,-0.0065,0.1,-0.268,0.06,-0.3935,-0.165
-0.5425,0.06,0.6025,0.241,-0.5725,0.331,0.506,0.037,0.0685,0.001,0.104,-0.2665,0.0595,-0.395,-0.176
-0.5435,0.0685,0.612,0.2375,-0.578,0.34,0.5105,0.0355,0.07,0.0065,0.1045,-0.268,0.061,-0.3945,-0.18
-0.545,0.079,0.624,0.2325,-0.584,0.3515,0.5115,0.0295,0.069,0.0105,0.1065,-0.2695,0.063,-0.386,-0.183
-0.5545,0.0905,0.645,0.2315,-0.6,0.3675,0.5225,0.045,0.092,0.0315,0.1195,-0.264,0.068,-0.3775,-0.1955
-0.5635,0.1075,0.671,0.2275,-0.6175,0.389,0.5215,0.055,0.1125,0.0575,0.137,-0.249,0.082,-0.36,-0.1995
-0.5675,0.1155,0.683,0.2255,-0.625,0.399,0.51,0.0435,0.1045,0.063,0.1465,-0.243,0.0885,-0.3545,-0.191
-0.5695,0.1365,0.7055,0.2165,-0.6375,0.421,0.4965,0.026,0.095,0.0735,0.16,-0.233,0.098,-0.3395,-0.182
-0.5655,0.1555,0.7205,0.205,-0.643,0.4375,0.474,0.0035,0.0835,0.0815,0.172,-0.2195,0.111,-0.3245,-0.1705
-0.541,0.167,0.7075,0.1865,-0.624,0.437,0.439,-0.0445,0.0445,0.067,0.1665,-0.224,0.1145,-0.318,-0.151
-0.5235,0.1775,0.701,0.1725,-0.612,0.439,0.4035,-0.1125,-0.0125,0.0455,0.16,-0.2265,0.119,-0.319,-0.123
-0.5105,0.1885,0.699,0.161,-0.6045,0.4435,0.367,-0.1795,-0.064,0.0295,0.16,-0.2235,0.123,-0.304,-0.093
-0.4925,0.2095,0.702,0.141,-0.5975,0.4555,0.327,-0.247,-0.112,0.016,0.161,-0.22,0.131,-0.2785,-0.064
-0.4835,0.2285,0.712,0.127,-0.598,0.47,0.2875,-0.3275,-0.1775,-0.003,0.1665,-0.2085,0.14,-0.2615,-0.0245
-0.4705,0.245,0.7155,0.113,-0.593,0.48,0.2405,-0.4175,-0.255,-0.0315,0.1635,-0.2025,0.145,-0.245,0.0165
-0.469,0.253,0.722,0.108,-0.596,0.4875,0.197,-0.508,-0.341,-0.0705,0.1555,-0.199,0.146,-0.245,0.061
-0.462,0.263,0.7245,0.099,-0.5935,0.4935,0.1575,-0.5925,-0.4225,-0.1,0.158,-0.1855,0.155,-0.236,0.107
-0.4475,0.2725,0.7205,0.0875,-0.584,0.4965,0.123,-0.6655,-0.493,-0.129,0.1585,-0.1755,0.1615,-0.2235,0.1435
-0.4395,0.2725,0.712,0.0835,-0.5755,0.492,0.091,-0.743,-0.5755,-0.171,0.15,-0.174,0.1585,-0.2225,0.1805
-0.4235,0.2685,0.6925,0.0775,-0.558,0.48,0.061,-0.8075,-0.6435,-0.204,0.1425,-0.17,0.1605,-0.225,0.214
-0.4165,0.263,0.679,0.0765,-0.548,0.4705,0.0365,-0.859,-0.6995,-0.231,0.138,-0.1635,0.1625,-0.23,0.243
-0.413,0.2445,0.6575,0.084,-0.535,0.4505,0.021,-0.894,-0.7415,-0.2475,0.1435,-0.151,0.1685,-0.245,0.2635
-0.4035,0.22,0.6235,0.0915,-0.5135,0.4215,0.0065,-0.9295,-0.7855,-0.2645,0.1475,-0.1375,0.1745,-0.267,0.286
-0.39,0.2055,0.596,0.092,-0.493,0.4005,-0.0255,-0.991,-0.8525,-0.2955,0.145,-0.129,0.176,-0.2805,0.3235
-0.3575,0.198,0.5555,0.0795,-0.4565,0.3765,-0.065,-1.0545,-0.917,-0.327,0.14,-0.1225,0.184,-0.2905,0.3605
-0.346,0.19,0.5355,0.078,-0.4405,0.3625,-0.093,-1.1065,-0.977,-0.356,0.1385,-0.1125,0.187,-0.298,0.3925
-0.3485,0.1775,0.5265,0.085,-0.4375,0.352,-0.111,-1.1425,-1.0245,-0.3765,0.143,-0.098,0.191,-0.309,0.422
-0.325,0.1705,0.4955,0.0765,-0.41,0.333,-0.1335,-1.1795,-1.066,-0.398,0.1435,-0.089,0.2,-0.324,0.4435
-0.3075,0.164,0.4715,0.0715,-0.3895,0.3175,-0.1585,-1.2215,-1.1145,-0.4245,0.141,-0.0815,0.205,-0.337,0.468
-0.2795,0.1565,0.4355,0.0615,-0.3575,0.296,-0.191,-1.272,-1.1755,-0.4595,0.133,-0.0765,0.212,-0.345,0.498
-0.2435,0.1495,0.393,0.047,-0.318,0.271,-0.2235,-1.325,-1.238,-0.493,0.1295,-0.0685,0.221,-0.345,0.53
-0.237,0.1445,0.3815,0.046,-0.309,0.2625,-0.2545,-1.3815,-1.3045,-0.5265,0.1315,-0.0535,0.2285,-0.351,0.5695
-0.22,0.1375,0.3575,0.041,-0.289,0.2475,-0.2975,-1.4435,-1.375,-0.5605,0.1315,-0.038,0.2405,-0.3615,0.607
-0.1865,0.1265,0.313,0.03,-0.25,0.2195,-0.3335,-1.4925,-1.428,-0.584,0.1405,-0.0165,0.26,-0.3755,0.6405
-0.169,0.1165,0.286,0.026,-0.2275,0.201,-0.361,-1.5355,-1.479,-0.609,0.1495,0.0045,0.273,-0.391,0.6715
-0.143,0.1045,0.2475,0.019,-0.1955,0.176,-0.392,-1.5745,-1.5355,-0.644,0.147,0.0185,0.2825,-0.402,0.703
-0.107,0.097,0.204,0.0045,-0.155,0.15,-0.428,-1.6125,-1.5865,-0.682,0.1425,0.0255,0.2935,-0.411,0.736
-0.0855,0.0905,0.1765,-0.0025,-0.131,0.1335,-0.4615,-1.65,-1.6345,-0.713,0.1395,0.036,0.3015,-0.4195,0.7695
-0.072,0.0905,0.1625,-0.0095,-0.117,0.126,-0.4865,-1.684,-1.6795,-0.7415,0.1375,0.05,0.3085,-0.426,0.797
-0.0565,0.0885,0.145,-0.016,-0.101,0.1165,-0.509,-1.7215,-1.731,-0.7865,0.1235,0.0505,0.3065,-0.427,0.8255
-0.047,0.0835,0.131,-0.0185,-0.089,0.107,-0.53,-1.7615,-1.797,-0.8475,0.093,0.037,0.2915,-0.4285,0.8555
-0.053,0.084,0.137,-0.0155,-0.095,0.1105,-0.5455,-1.8045,-1.866,-0.911,0.0635,0.0265,0.275,-0.4315,0.886
-0.063,0.083,0.146,-0.0105,-0.1045,0.114,-0.558,-1.85,-1.936,-0.974,0.0355,0.02,0.2595,-0.4375,0.918
-0.034,0.083,0.117,-0.025,-0.0755,0.0995,-0.587,-1.8965,-2.011,-1.041,0.0015,0.0055,0.25,-0.4365,0.95
0.003,0.0765,0.0735,-0.0405,-0.035,0.075,-0.617,-1.9405,-2.0785,-1.102,-0.027,-0.0035,0.2455,-0.442,0.985
0.031,0.0735,0.043,-0.0525,-0.006,0.058,-0.6455,-1.975,-2.1315,-1.1475,-0.0415,0.001,0.2495,-0.451,1.018
0.0755,0.081,0.006,-0.0785,0.0345,0.043,-0.6865,-2.0125,-2.184,-1.189,-0.0515,0.008,0.263,-0.448,1.0535
0.0985,0.08,-0.018,-0.0895,0.0585,0.031,-0.7165,-2.045,-2.2345,-1.2335,-0.0625,0.0175,0.271,-0.452,1.0875
0.129,0.0725,-0.0565,-0.101,0.093,0.0075,-0.74,-2.062,-2.2705,-1.27,-0.0735,0.026,0.28,-0.4605,1.117
0.159,0.057,-0.1025,-0.108,0.131,-0.023,-0.76,-2.074,-2.2995,-1.2985,-0.0775,0.038,0.292,-0.4795,1.142
0.189,0.044,-0.145,-0.117,0.167,-0.051,-0.7805,-2.089,-2.3325,-1.332,-0.0845,0.0485,0.3025,-0.501,1.1665
0.225,0.0385,-0.187,-0.132,0.206,-0.0745,-0.804,-2.1125,-2.3715,-1.3685,-0.0965,0.0515,0.3105,-0.502,1.1955
0.2415,0.023,-0.2185,-0.1325,0.23,-0.098,-0.823,-2.136,-2.4065,-1.402,-0.1065,0.0565,0.314,-0.512,1.2215
0.2675,0.01,-0.2575,-0.1395,0.2625,-0.1235,-0.838,-2.149,-2.4345,-1.4355,-0.1175,0.062,0.3205,-0.534,1.244
0.2885,0.002,-0.2865,-0.1455,0.2875,-0.1425,-0.848,-2.155,-2.4565,-1.4645,-0.1275,0.068,0.329,-0.5485,1.2655
0.31,-0.01,-0.32,-0.15,0.315,-0.1655,-0.855,-2.1535,-2.469,-1.4895,-0.1365,0.0755,0.3355,-0.5615,1.2815
0.3225,-0.0265,-0.349,-0.1485,0.336,-0.188,-0.8565,-2.151,-2.486,-1.518,-0.148,0.08,0.3385,-0.583,1.2965
0.336,-0.0445,-0.3805,-0.146,0.358,-0.2125,-0.8625,-2.165,-2.5175,-1.557,-0.167,0.0795,0.336,-0.6045,1.3205
0.362,-0.066,-0.4275,-0.148,0.3945,-0.247,-0.864,-2.1625,-2.5285,-1.5815,-0.182,0.0775,0.3365,-0.6275,1.3295
0.379,-0.088,-0.467,-0.146,0.423,-0.2775,-0.8585,-2.136,-2.5115,-1.5875,-0.188,0.08,0.342,-0.6495,1.3295
0.392,-0.1015,-0.4935,-0.146,0.443,-0.2975,-0.861,-2.123,-2.5045,-1.6025,-0.1975,0.082,0.344,-0.665,1.34
0.41,-0.114,-0.5245,-0.1485,0.4675,-0.3195,-0.861,-2.108,-2.499,-1.6175,-0.208,0.0825,0.347,-0.677,1.3475
0.4315,-0.125,-0.5565,-0.1535,0.494,-0.341,-0.856,-2.0845,-2.485,-1.6295,-0.2215,0.0785,0.347,-0.684,1.3525
0.419,-0.1335,-0.552,-0.143,0.4855,-0.343,-0.8465,-2.071,-2.4755,-1.645,-0.24,0.067,0.336,-0.696,1.36
0.3855,-0.1395,-0.525,-0.123,0.4555,-0.3325,-0.8345,-2.065,-2.4745,-1.6665,-0.2625,0.0555,0.3185,-0.709,1.3695
0.3735,-0.136,-0.51,-0.119,0.4415,-0.3235,-0.827,-2.059,-2.476,-1.688,-0.2845,0.043,0.304,-0.701,1.3785
0.389,-0.1375,-0.527,-0.126,0.458,-0.333,-0.8185,-2.037,-2.459,-1.7,-0.305,0.029,0.296,-0.705,1.3765
0.4255,-0.144,-0.5695,-0.141,0.4975,-0.357,-0.8155,-2.0145,-2.436,-1.7115,-0.333,0.003,0.287,-0.7165,1.3665
0.4635,-0.14,-0.604,-0.162,0.534,-0.3725,-0.8115,-2.0015,-2.419,-1.728,-0.3705,-0.032,0.271,-0.7115,1.3565
0.4635,-0.1385,-0.602,-0.1625,0.5325,-0.3705,-0.793,-1.977,-2.399,-1.7495,-0.4145,-0.0735,0.241,-0.7065,1.348
0.4485,-0.1295,-0.5785,-0.16,0.5135,-0.354,-0.769,-1.939,-2.3565,-1.747,-0.4405,-0.102,0.2175,-0.689,1.337
0.425,-0.1205,-0.5455,-0.1525,0.485,-0.333,-0.7415,-1.905,-2.319,-1.7545,-0.478,-0.142,0.183,-0.6835,1.321
0.379,-0.113,-0.4915,-0.1335,0.4355,-0.3025,-0.714,-1.8765,-2.2885,-1.765,-0.5165,-0.184,0.144,-0.67,1.306
0.359,-0.0965,-0.455,-0.132,0.407,-0.276,-0.6905,-1.8405,-2.243,-1.7535,-0.5345,-0.204,0.1265,-0.642,1.292
0.34,-0.0875,-0.427,-0.1265,0.3835,-0.2575,-0.6705,-1.8225,-2.2255,-1.7735,-0.5805,-0.2515,0.0865,-0.638,1.2815
0.317,-0.081,-0.3975,-0.1185,0.3575,-0.2395,-0.6515,-1.8045,-2.2095,-1.789,-0.6165,-0.2885,0.0535,-0.6325,1.2745
0.303,-0.0745,-0.378,-0.1145,0.3405,-0.2265,-0.6365,-1.784,-2.189,-1.799,-0.6495,-0.32,0.0275,-0.622,1.272
0.3035,-0.0655,-0.369,-0.1195,0.3365,-0.2175,-0.633,-1.783,-2.186,-1.822,-0.6955,-0.3645,-0.0035,-0.6075,1.2735
0.293,-0.0565,-0.3495,-0.1185,0.321,-0.203,-0.624,-1.782,-2.185,-1.845,-0.737,-0.408,-0.0385,-0.5915,1.2765
0.275,-0.048,-0.3235,-0.114,0.2995,-0.186,-0.6095,-1.7655,-2.163,-1.8505,-0.7675,-0.4445,-0.068,-0.583,1.272
0.2675,-0.037,-0.3045,-0.1155,0.286,-0.171,-0.596,-1.744,-2.139,-1.8535,-0.7965,-0.4755,-0.0895,-0.5655,1.262
0.2435,-0.0435,-0.287,-0.1005,0.2655,-0.1655,-0.577,-1.7295,-2.1235,-1.8625,-0.8295,-0.511,-0.122,-0.569,1.2545
0.236,-0.049,-0.285,-0.094,0.2605,-0.167,-0.559,-1.706,-2.0995,-1.862,-0.853,-0.5385,-0.146,-0.577,1.247
0.2205,-0.043,-0.2635,-0.089,0.2425,-0.1535,-0.547,-1.6955,-2.094,-1.883,-0.892,-0.581,-0.179,-0.569,1.2435
0.204,-0.032,-0.2365,-0.086,0.22,-0.1345,-0.5385,-1.692,-2.0875,-1.897,-0.9245,-0.618,-0.2075,-0.553,1.2405
0.188,-0.011,-0.199,-0.089,0.1935,-0.1055,-0.526,-1.6795,-2.0745,-1.901,-0.9505,-0.648,-0.231,-0.5265,1.2395
0.1585,0.0005,-0.158,-0.08,0.158,-0.079,-0.512,-1.665,-2.055,-1.898,-0.964,-0.666,-0.2485,-0.5175,1.2355
0.1445,0.003,-0.142,-0.074,0.143,-0.0695,-0.4975,-1.6405,-2.0195,-1.8735,-0.9575,-0.667,-0.2475,-0.5215,1.222
0.1485,0.01,-0.1385,-0.0795,0.1435,-0.0645,-0.49,-1.623,-1.9985,-1.8655,-0.9715,-0.687,-0.2585,-0.5105,1.213
0.1535,0.02,-0.1335,-0.087,0.1435,-0.057,-0.4855,-1.6125,-1.9805,-1.86,-0.982,-0.702,-0.2655,-0.4945,1.205
0.1445,0.0305,-0.114,-0.0875,0.129,-0.042,-0.476,-1.604,-1.9685,-1.8545,-0.9885,-0.7145,-0.2745,-0.4905,1.1985
0.139,0.047,-0.0915,-0.093,0.115,-0.0225,-0.4665,-1.595,-1.952,-1.8515,-1.0015,-0.7325,-0.287,-0.47,1.1895
0.124,0.055,-0.069,-0.09,0.0965,-0.007,-0.453,-1.569,-1.9125,-1.821,-0.9905,-0.7335,-0.286,-0.4595,1.17
0.0995,0.0485,-0.051,-0.0745,0.0755,-0.0015,-0.431,-1.5385,-1.877,-1.7985,-0.99,-0.7445,-0.2985,-0.463,1.1495
0.0715,0.0495,-0.022,-0.0605,0.0465,0.0135,-0.404,-1.5075,-1.84,-1.781,-1.0015,-0.766,-0.319,-0.4615,1.126
0.0535,0.0485,-0.005,-0.051,0.0295,0.0215,-0.3875,-1.487,-1.814,-1.7665,-1.008,-0.783,-0.332,-0.4655,1.107
0.0455,0.056,0.01,-0.051,0.0175,0.033,-0.379,-1.481,-1.804,-1.7645,-1.018,-0.7995,-0.346,-0.454,1.0995
0.039,0.066,0.027,-0.053,0.006,0.046,-0.365,-1.468,-1.792,-1.7625,-1.0335,-0.8215,-0.362,-0.4445,1.0885
0.05,0.067,0.017,-0.0585,0.0165,0.0415,-0.3565,-1.4485,-1.77,-1.751,-1.0395,-0.836,-0.3665,-0.4465,1.0715
0.0505,0.076,0.026,-0.0635,0.0125,0.0505,-0.349,-1.431,-1.7405,-1.726,-1.031,-0.8375,-0.3635,-0.434,1.058
0.0265,0.085,0.0585,-0.056,-0.016,0.0715,-0.3375,-1.421,-1.7285,-1.715,-1.031,-0.8455,-0.375,-0.42,1.049
0.016,0.094,0.078,-0.055,-0.031,0.086,-0.328,-1.405,-1.7025,-1.69,-1.017,-0.8415,-0.3695,-0.4205,1.037
0.0255,0.108,0.0825,-0.067,-0.0285,0.095,-0.3225,-1.3895,-1.673,-1.658,-0.998,-0.83,-0.353,-0.413,1.025
0.019,0.1215,0.1025,-0.0705,-0.0415,0.1115,-0.316,-1.3745,-1.6465,-1.6235,-0.97,-0.811,-0.336,-0.398,1.012
0.001,0.1335,0.132,-0.0675,-0.0655,0.1325,-0.3015,-1.3525,-1.6105,-1.5855,-0.9475,-0.801,-0.329,-0.3845,0.9955
-0.0295,0.1445,0.1735,-0.058,-0.1015,0.1585,-0.2765,-1.3275,-1.576,-1.558,-0.9395,-0.8055,-0.3395,-0.3705,0.9735
-0.0745,0.151,0.225,-0.0385,-0.15,0.188,-0.25,-1.2865,-1.5215,-1.507,-0.906,-0.7845,-0.3305,-0.37,0.949
-0.1015,0.15,0.2515,-0.0245,-0.1765,0.2005,-0.229,-1.2515,-1.477,-1.4695,-0.883,-0.773,-0.3265,-0.378,0.925
-0.101,0.146,0.247,-0.023,-0.174,0.1965,-0.2165,-1.223,-1.438,-1.4365,-0.8635,-0.7655,-0.318,-0.3835,0.9035
-0.094,0.1485,0.2425,-0.0275,-0.1685,0.1955,-0.2085,-1.2,-1.4045,-1.403,-0.8435,-0.756,-0.307,-0.3815,0.886
-0.0835,0.154,0.237,-0.0355,-0.1605,0.195,-0.2015,-1.188,-1.3845,-1.385,-0.8365,-0.757,-0.304,-0.3765,0.871
-0.0545,0.1605,0.215,-0.053,-0.135,0.1875,-0.201,-1.17,-1.352,-1.352,-0.8125,-0.7425,-0.2815,-0.3755,0.851
-0.037,0.16,0.1965,-0.0615,-0.1165,0.178,-0.198,-1.1525,-1.324,-1.3215,-0.7915,-0.7325,-0.2655,-0.384,0.825
-0.04,0.158,0.198,-0.0595,-0.1185,0.1775,-0.1855,-1.127,-1.29,-1.288,-0.7645,-0.7135,-0.2495,-0.3895,0.8025
-0.0305,0.1575,0.1875,-0.0635,-0.109,0.172,-0.1695,-1.0895,-1.24,-1.238,-0.7245,-0.6815,-0.222,-0.397,0.7715
-0.0285,0.155,0.184,-0.0635,-0.106,0.169,-0.157,-1.057,-1.1915,-1.1875,-0.682,-0.649,-0.1945,-0.3995,0.746
-0.046,0.155,0.201,-0.0545,-0.1235,0.1775,-0.1405,-1.019,-1.1395,-1.132,-0.635,-0.613,-0.168,-0.404,0.722
-0.069,0.1475,0.2165,-0.0395,-0.143,0.182,-0.1165,-0.9755,-1.0835,-1.075,-0.5925,-0.584,-0.15,-0.418,0.692
-0.073,0.147,0.22,-0.0375,-0.1465,0.1835,-0.1025,-0.9415,-1.0335,-1.027,-0.5535,-0.556,-0.128,-0.417,0.6685
-0.0595,0.147,0.2065,-0.044,-0.133,0.1765,-0.0935,-0.9075,-0.987,-0.98,-0.518,-0.5295,-0.1015,-0.423,0.641
-0.0645,0.1465,0.211,-0.0415,-0.1375,0.1785,-0.077,-0.8745,-0.9435,-0.938,-0.49,-0.5145,-0.09,-0.4255,0.6155
-0.0725,0.139,0.2115,-0.0335,-0.142,0.175,-0.059,-0.84,-0.8985,-0.899,-0.466,-0.5035,-0.0825,-0.4325,0.5935
