i,ii,iii,avr,avl,avf,v1,v2,v3,v4,v5,v6,vx,vy,vz
-0.4425,-0.3985,0.0445,0.421,-0.2435,-0.1775,-0.0155,0.112,0.2325,0.037,-0.165,-0.257,0.06,0.1325,-0.07
-0.45,-0.396,0.0545,0.4235,-0.2525,-0.171,-0.013,0.116,0.236,0.041,-0.161,-0.256,0.0595,0.13,-0.07
-0.448,-0.394,0.055,0.421,-0.2515,-0.1695,-0.015,0.1175,0.2375,0.0425,-0.158,-0.2565,0.0605,0.129,-0.0705
-0.444,-0.395,0.0495,0.4195,-0.247,-0.173,-0.0165,0.1175,0.238,0.0415,-0.1575,-0.2555,0.0615,0.1325,-0.0705
-0.4395,-0.3985,0.0415,0.419,-0.2405,-0.1785,-0.015,0.123,0.242,0.044,-0.1525,-0.2515,0.0635,0.124,-0.069
-0.4355,-0.3985,0.0375,0.4175,-0.2365,-0.181,-0.018,0.1245,0.244,0.0445,-0.1495,-0.2505,0.066,0.122,-0.068
-0.435,-0.3995,0.036,0.4175,-0.2355,-0.1825,-0.019,0.1235,0.2425,0.042,-0.15,-0.252,0.068,0.1275,-0.067
-0.4355,-0.402,0.034,0.419,-0.2345,-0.1845,-0.0175,0.126,0.2425,0.0415,-0.149,-0.2515,0.0685,0.128,-0.0665
-0.4355,-0.405,0.0305,0.4205,-0.233,-0.1875,-0.023,0.1225,0.2405,0.038,-0.1495,-0.2535,0.0695,0.1275,-0.065
-0.4345,-0.407,0.0285,0.421,-0.2315,-0.1895,-0.0215,0.122,0.2405,0.0375,-0.147,-0.252,0.071,0.1265,-0.0625
-0.426,-0.4045,0.022,0.4155,-0.224,-0.1915,-0.0225,0.121,0.24,0.0365,-0.146,-0.249,0.072,0.12,-0.0585
-0.4215,-0.4075,0.015,0.4145,-0.2185,-0.1965,-0.026,0.1205,0.24,0.036,-0.1415,-0.2465,0.0755,0.118,-0.0565
-0.4255,-0.413,0.013,0.4195,-0.219,-0.2005,-0.0285,0.1205,0.236,0.034,-0.139,-0.247,0.077,0.122,-0.055
-0.423,-0.414,0.0095,0.4185,-0.216,-0.2025,-0.033,0.118,0.229,0.0275,-0.141,-0.246,0.079,0.118,-0.0495
-0.4195,-0.4105,0.0095,0.415,-0.2145,-0.2005,-0.034,0.1155,0.2235,0.023,-0.1425,-0.247,0.079,0.117,-0.046
-0.4175,-0.4115,0.0065,0.415,-0.212,-0.203,-0.0375,0.1075,0.2165,0.017,-0.144,-0.2495,0.078,0.1155,-0.0435
-0.419,-0.4175,0.002,0.4185,-0.2105,-0.208,-0.0395,0.106,0.2135,0.0155,-0.1405,-0.245,0.0805,0.105,-0.0385
-0.415,-0.4135,0.0015,0.4145,-0.2085,-0.206,-0.0405,0.106,0.211,0.014,-0.1365,-0.242,0.081,0.102,-0.033
-0.4165,-0.4135,0.004,0.4155,-0.2105,-0.205,-0.041,0.105,0.208,0.013,-0.1325,-0.2385,0.083,0.1015,-0.0275
-0.4195,-0.4185,0.0015,0.4195,-0.2105,-0.209,-0.047,0.0985,0.1985,0.0055,-0.134,-0.238,0.084,0.0995,-0.0215
-0.4125,-0.421,-0.0085,0.417,-0.202,-0.215,-0.0555,0.0865,0.1845,-0.0065,-0.1385,-0.242,0.084,0.101,-0.016
-0.409,-0.4195,-0.0105,0.4145,-0.199,-0.215,-0.0585,0.0795,0.176,-0.013,-0.142,-0.243,0.084,0.1035,-0.0105
-0.4085,-0.416,-0.007,0.4125,-0.2005,-0.2115,-0.0615,0.075,0.1685,-0.019,-0.1425,-0.242,0.0835,0.102,-0.004
-0.4105,-0.419,-0.008,0.415,-0.2015,-0.2135,-0.0635,0.071,0.1605,-0.025,-0.142,-0.2405,0.0835,0.095,0.001
-0.416,-0.4295,-0.013,0.4235,-0.2015,-0.2215,-0.0695,0.064,0.1515,-0.0325,-0.144,-0.239,0.0835,0.0945,0.0085
-0.421,-0.431,-0.0095,0.4265,-0.206,-0.2205,-0.0755,0.0565,0.14,-0.0405,-0.146,-0.239,0.0835,0.097,0.0165
-0.4185,-0.4275,-0.009,0.423,-0.205,-0.2185,-0.0785,0.048,0.129,-0.049,-0.148,-0.2395,0.084,0.0945,0.0225
-0.4115,-0.4285,-0.0165,0.42,-0.1975,-0.223,-0.0835,0.039,0.117,-0.0585,-0.152,-0.2415,0.083,0.092,0.0275
-0.4045,-0.4275,-0.0225,0.416,-0.191,-0.225,-0.0915,0.027,0.102,-0.07,-0.159,-0.245,0.0815,0.092,0.034
-0.41,-0.431,-0.0205,0.421,-0.195,-0.226,-0.098,0.017,0.09,-0.08,-0.1615,-0.2455,0.0805,0.0925,0.0435
-0.416,-0.4325,-0.0155,0.4245,-0.2005,-0.2245,-0.102,0.009,0.079,-0.0875,-0.163,-0.244,0.0805,0.0935,0.0515
-0.413,-0.433,-0.019,0.4235,-0.197,-0.2265,-0.1045,0.001,0.0685,-0.0945,-0.1635,-0.2425,0.0795,0.092,0.0575
-0.4155,-0.435,-0.019,0.4255,-0.1985,-0.227,-0.1095,-0.0075,0.0565,-0.104,-0.167,-0.2425,0.0785,0.0905,0.0645
-0.4215,-0.4365,-0.0145,0.429,-0.203,-0.226,-0.115,-0.018,0.043,-0.113,-0.172,-0.243,0.0775,0.0915,0.0715
-0.4245,-0.4335,-0.0085,0.4295,-0.208,-0.221,-0.119,-0.0285,0.0295,-0.121,-0.1755,-0.2445,0.0765,0.0925,0.076
-0.4255,-0.432,-0.0055,0.429,-0.21,-0.219,-0.1255,-0.04,0.016,-0.1305,-0.18,-0.246,0.076,0.0955,0.082
-0.4275,-0.4325,-0.0045,0.4305,-0.2115,-0.2185,-0.128,-0.0475,0.0055,-0.136,-0.183,-0.244,0.075,0.096,0.089
-0.4285,-0.431,-0.002,0.43,-0.213,-0.2165,-0.1315,-0.0585,-0.006,-0.142,-0.185,-0.2435,0.0735,0.095,0.0955
-0.4315,-0.4335,-0.0015,0.433,-0.215,-0.2175,-0.138,-0.069,-0.019,-0.1495,-0.1895,-0.244,0.072,0.094,0.1005
-0.434,-0.437,-0.0025,0.436,-0.216,-0.22,-0.1425,-0.078,-0.0305,-0.1575,-0.194,-0.2455,0.0695,0.095,0.104
-0.4395,-0.434,0.006,0.437,-0.2225,-0.2145,-0.1475,-0.089,-0.042,-0.1635,-0.197,-0.2465,0.068,0.102,0.1095
-0.4445,-0.4235,0.0215,0.4345,-0.233,-0.2015,-0.1555,-0.098,-0.052,-0.167,-0.1965,-0.2435,0.067,0.1035,0.1135
-0.442,-0.4205,0.022,0.4315,-0.2315,-0.2,-0.1565,-0.1085,-0.0635,-0.175,-0.2025,-0.2455,0.064,0.102,0.12
-0.4415,-0.421,0.021,0.4315,-0.231,-0.2,-0.156,-0.1155,-0.074,-0.1805,-0.2085,-0.248,0.06,0.102,0.124
-0.444,-0.4245,0.02,0.4345,-0.232,-0.2025,-0.1605,-0.123,-0.0825,-0.185,-0.2115,-0.2455,0.0595,0.1025,0.1275
-0.452,-0.426,0.0265,0.4395,-0.239,-0.2,-0.171,-0.1355,-0.0975,-0.1935,-0.2175,-0.2485,0.058,0.106,0.1345
-0.4605,-0.423,0.0375,0.442,-0.249,-0.193,-0.1785,-0.1455,-0.106,-0.1975,-0.22,-0.2485,0.0555,0.11,0.1375
-0.469,-0.4215,0.048,0.4455,-0.2585,-0.187,-0.1765,-0.1525,-0.1135,-0.2015,-0.222,-0.248,0.0535,0.1115,0.1405
-0.479,-0.4185,0.061,0.449,-0.27,-0.179,-0.1795,-0.158,-0.123,-0.204,-0.2245,-0.248,0.0515,0.113,0.143
-0.489,-0.417,0.0725,0.453,-0.2805,-0.1725,-0.172,-0.1615,-0.1265,-0.2045,-0.226,-0.2455,0.05,0.1185,0.145
-0.499,-0.418,0.0815,0.4585,-0.2905,-0.1685,-0.179,-0.1715,-0.1355,-0.2085,-0.228,-0.2455,0.048,0.121,0.1495
-0.498,-0.4225,0.076,0.4605,-0.287,-0.1735,-0.191,-0.183,-0.1495,-0.2165,-0.2325,-0.248,0.048,0.1235,0.155
-0.488,-0.419,0.069,0.454,-0.2785,-0.175,-0.1945,-0.193,-0.161,-0.225,-0.24,-0.2515,0.046,0.1265,0.1585
-0.4845,-0.415,0.0695,0.45,-0.277,-0.173,-0.206,-0.2065,-0.1695,-0.2315,-0.245,-0.2535,0.0445,0.123,0.1615
-0.4875,-0.409,0.079,0.448,-0.283,-0.1655,-0.207,-0.214,-0.177,-0.234,-0.2465,-0.2545,0.043,0.1295,0.1635
-0.489,-0.403,0.0865,0.4465,-0.288,-0.1585,-0.201,-0.2175,-0.183,-0.236,-0.2495,-0.2555,0.04,0.1385,0.1645
-0.491,-0.4035,0.088,0.4475,-0.2895,-0.158,-0.2085,-0.224,-0.192,-0.239,-0.253,-0.2555,0.039,0.14,0.168
-0.4975,-0.403,0.095,0.4505,-0.296,-0.1545,-0.214,-0.229,-0.1995,-0.2405,-0.254,-0.2545,0.038,0.1445,0.171
-0.5085,-0.4055,0.1035,0.457,-0.306,-0.1515,-0.212,-0.2335,-0.2025,-0.2435,-0.255,-0.2535,0.035,0.143,0.1715
-0.517,-0.401,0.117,0.4595,-0.317,-0.1425,-0.2145,-0.2385,-0.207,-0.245,-0.2545,-0.2515,0.033,0.1405,0.174
-0.522,-0.397,0.125,0.46,-0.3235,-0.136,-0.2165,-0.2425,-0.212,-0.2455,-0.256,-0.2495,0.032,0.14,0.1755
-0.5255,-0.3955,0.1305,0.4605,-0.328,-0.133,-0.22,-0.2515,-0.2205,-0.2505,-0.262,-0.2515,0.03,0.1425,0.179
-0.523,-0.391,0.1325,0.457,-0.3275,-0.1295,-0.225,-0.259,-0.2285,-0.2555,-0.2665,-0.255,0.0285,0.1495,0.1815
-0.512,-0.3895,0.1225,0.451,-0.3175,-0.1335,-0.2305,-0.266,-0.237,-0.2615,-0.2725,-0.259,0.0275,0.151,0.182
-0.5105,-0.394,0.1165,0.4525,-0.3135,-0.139,-0.2285,-0.2705,-0.242,-0.2635,-0.2735,-0.259,0.0245,0.1475,0.1845
-0.522,-0.394,0.1285,0.458,-0.325,-0.133,-0.227,-0.2725,-0.2435,-0.265,-0.274,-0.2585,0.0225,0.15,0.185
-0.53,-0.3875,0.143,0.459,-0.3365,-0.1225,-0.23,-0.278,-0.2485,-0.2695,-0.2785,-0.2605,0.021,0.157,0.186
-0.5335,-0.3885,0.1455,0.461,-0.3395,-0.1215,-0.2285,-0.2785,-0.251,-0.27,-0.278,-0.2595,0.0195,0.1565,0.1875
-0.537,-0.391,0.1465,0.464,-0.3415,-0.1225,-0.231,-0.2825,-0.255,-0.273,-0.2805,-0.26,0.019,0.1525,0.189
-0.538,-0.3895,0.1485,0.464,-0.343,-0.121,-0.2335,-0.285,-0.258,-0.275,-0.2825,-0.261,0.017,0.1535,0.1915
-0.535,-0.392,0.1435,0.464,-0.3395,-0.1245,-0.236,-0.286,-0.26,-0.275,-0.283,-0.261,0.016,0.149,0.1935
-0.534,-0.3975,0.1375,0.466,-0.336,-0.13,-0.2355,-0.2915,-0.265,-0.2785,-0.2855,-0.2625,0.014,0.141,0.1955
-0.537,-0.396,0.1415,0.4665,-0.3395,-0.1275,-0.2305,-0.29,-0.2655,-0.279,-0.286,-0.2615,0.012,0.1485,0.1955
-0.5445,-0.396,0.149,0.4705,-0.347,-0.1235,-0.2325,-0.292,-0.268,-0.2795,-0.287,-0.2605,0.0115,0.1555,0.196
-0.5545,-0.3945,0.1605,0.475,-0.3575,-0.1175,-0.2335,-0.2945,-0.272,-0.2805,-0.2885,-0.2615,0.008,0.1605,0.1975
-0.549,-0.3915,0.1585,0.4705,-0.3535,-0.117,-0.2385,-0.3005,-0.2775,-0.287,-0.2935,-0.266,0.0065,0.16,0.199
-0.5385,-0.392,0.147,0.4655,-0.343,-0.1225,-0.245,-0.309,-0.2865,-0.2935,-0.3005,-0.2715,0.0065,0.1595,0.2005
-0.5415,-0.393,0.149,0.4675,-0.3455,-0.1225,-0.244,-0.3085,-0.2865,-0.2915,-0.3,-0.2705,0.006,0.1585,0.2
-0.5465,-0.393,0.154,0.47,-0.3505,-0.12,-0.243,-0.306,-0.2845,-0.288,-0.2965,-0.2665,0.0065,0.155,0.2005
-0.548,-0.391,0.1575,0.47,-0.353,-0.117,-0.2395,-0.307,-0.286,-0.2895,-0.297,-0.267,0.005,0.161,0.2005
-0.5505,-0.3935,0.1575,0.472,-0.354,-0.118,-0.24,-0.308,-0.2895,-0.2925,-0.3025,-0.27,0.0035,0.16,0.2015
-0.554,-0.394,0.161,0.4745,-0.3575,-0.117,-0.243,-0.3125,-0.294,-0.295,-0.306,-0.2735,0.0015,0.163,0.203
-0.557,-0.3915,0.1665,0.4745,-0.362,-0.113,-0.2435,-0.3135,-0.295,-0.296,-0.306,-0.274,0.001,0.1615,0.2035
-0.551,-0.3865,0.1645,0.469,-0.358,-0.1115,-0.244,-0.3145,-0.2965,-0.2955,-0.306,-0.273,0.001,0.158,0.2045
-0.547,-0.3895,0.1575,0.4685,-0.3525,-0.116,-0.2425,-0.316,-0.296,-0.2955,-0.3045,-0.2715,-0.0005,0.155,0.206
-0.553,-0.393,0.16,0.4735,-0.3565,-0.1165,-0.2435,-0.317,-0.298,-0.2975,-0.305,-0.271,-0.0015,0.1565,0.207
-0.559,-0.392,0.1675,0.4755,-0.363,-0.1125,-0.2495,-0.321,-0.3035,-0.3015,-0.3095,-0.275,-0.0025,0.1585,0.2075
-0.562,-0.3965,0.1655,0.4795,-0.3635,-0.1155,-0.249,-0.3195,-0.3035,-0.302,-0.31,-0.2765,-0.004,0.1535,0.2085
-0.5595,-0.399,0.1605,0.48,-0.36,-0.1195,-0.244,-0.317,-0.302,-0.301,-0.3075,-0.275,-0.0055,0.1595,0.2085
-0.5685,-0.3995,0.1695,0.484,-0.369,-0.1155,-0.242,-0.3155,-0.3,-0.2985,-0.306,-0.2725,-0.006,0.1585,0.2095
-0.5705,-0.3985,0.1725,0.4845,-0.3715,-0.113,-0.244,-0.318,-0.301,-0.299,-0.306,-0.2725,-0.006,0.155,0.21
-0.567,-0.4005,0.167,0.484,-0.367,-0.117,-0.2435,-0.319,-0.302,-0.3,-0.307,-0.272,-0.0055,0.156,0.2105
-0.569,-0.401,0.1685,0.4855,-0.369,-0.1165,-0.242,-0.318,-0.3025,-0.301,-0.308,-0.274,-0.0075,0.1585,0.2105
-0.565,-0.4,0.165,0.483,-0.365,-0.118,-0.244,-0.3205,-0.3055,-0.303,-0.31,-0.274,-0.007,0.158,0.211
-0.564,-0.3995,0.165,0.482,-0.3645,-0.1175,-0.25,-0.327,-0.3115,-0.307,-0.3145,-0.278,-0.0085,0.156,0.211
-0.5615,-0.3975,0.1645,0.48,-0.363,-0.117,-0.25,-0.329,-0.312,-0.308,-0.315,-0.2805,-0.01,0.1575,0.2105
-0.5635,-0.3945,0.1695,0.4795,-0.3665,-0.1125,-0.248,-0.326,-0.3125,-0.3065,-0.316,-0.2795,-0.0095,0.1605,0.2115
-0.5595,-0.388,0.1715,0.474,-0.3655,-0.1085,-0.2495,-0.325,-0.31,-0.303,-0.312,-0.278,-0.007,0.166,0.21
-0.5575,-0.3925,0.166,0.4755,-0.3615,-0.1135,-0.2445,-0.3225,-0.3065,-0.3005,-0.3085,-0.275,-0.0075,0.166,0.209
-0.56,-0.398,0.1625,0.479,-0.361,-0.118,-0.2445,-0.3255,-0.314,-0.3075,-0.3175,-0.28,-0.012,0.159,0.2105
-0.559,-0.396,0.1635,0.4775,-0.361,-0.1165,-0.246,-0.3255,-0.314,-0.307,-0.317,-0.2795,-0.012,0.157,0.2105
-0.56,-0.3915,0.1685,0.476,-0.3645,-0.1115,-0.249,-0.326,-0.3145,-0.307,-0.3155,-0.278,-0.011,0.1615,0.2125
-0.5635,-0.389,0.175,0.4765,-0.369,-0.1075,-0.2485,-0.3285,-0.316,-0.3075,-0.3175,-0.28,-0.012,0.159,0.2125
-0.571,-0.3885,0.183,0.48,-0.377,-0.103,-0.2425,-0.3265,-0.3115,-0.3045,-0.315,-0.277,-0.0125,0.156,0.2125
-0.5745,-0.3935,0.181,0.4845,-0.378,-0.1065,-0.24,-0.3205,-0.308,-0.301,-0.311,-0.2715,-0.0135,0.154,0.2135
-0.5765,-0.3955,0.1815,0.4865,-0.379,-0.1075,-0.239,-0.3195,-0.3085,-0.3,-0.3105,-0.2725,-0.0145,0.1515,0.2135
-0.5635,-0.392,0.172,0.478,-0.368,-0.11,-0.2445,-0.3265,-0.313,-0.3045,-0.316,-0.2785,-0.0145,0.1515,0.213
-0.5405,-0.392,0.1495,0.4665,-0.345,-0.1215,-0.252,-0.333,-0.3205,-0.3125,-0.325,-0.2865,-0.017,0.1515,0.2125
-0.539,-0.393,0.1465,0.466,-0.3425,-0.1235,-0.2535,-0.3355,-0.3235,-0.3155,-0.3275,-0.2885,-0.018,0.157,0.2135
-0.548,-0.3905,0.158,0.4695,-0.353,-0.1165,-0.25,-0.3305,-0.3175,-0.309,-0.321,-0.2825,-0.017,0.158,0.213
-0.5535,-0.389,0.165,0.4715,-0.359,-0.1125,-0.2435,-0.3245,-0.3135,-0.305,-0.3165,-0.2795,-0.0175,0.154,0.2125
-0.557,-0.3945,0.163,0.476,-0.36,-0.116,-0.2415,-0.321,-0.314,-0.3055,-0.3175,-0.279,-0.017,0.152,0.2125
-0.5595,-0.4025,0.1575,0.481,-0.3585,-0.123,-0.248,-0.3245,-0.316,-0.308,-0.321,-0.282,-0.019,0.1485,0.2125
-0.5585,-0.4025,0.1565,0.4805,-0.3575,-0.1235,-0.2495,-0.328,-0.3195,-0.311,-0.323,-0.2835,-0.0185,0.1505,0.2125
-0.556,-0.39,0.1665,0.473,-0.361,-0.112,-0.2485,-0.3305,-0.32,-0.3125,-0.324,-0.284,-0.0175,0.1605,0.212
-0.5555,-0.392,0.164,0.474,-0.36,-0.114,-0.247,-0.328,-0.3155,-0.3085,-0.3205,-0.2815,-0.018,0.1585,0.2125
-0.5555,-0.3965,0.1595,0.4765,-0.3575,-0.119,-0.2435,-0.3235,-0.3125,-0.3055,-0.317,-0.278,-0.018,0.153,0.2125
-0.559,-0.3955,0.164,0.4775,-0.3615,-0.116,-0.2425,-0.324,-0.313,-0.306,-0.3185,-0.278,-0.018,0.1555,0.211
-0.561,-0.4005,0.1615,0.481,-0.3615,-0.1195,-0.241,-0.3215,-0.314,-0.3045,-0.3195,-0.278,-0.0185,0.152,0.2115
-0.5655,-0.398,0.168,0.482,-0.3665,-0.115,-0.2405,-0.3205,-0.3125,-0.302,-0.3175,-0.277,-0.019,0.151,0.21
-0.5645,-0.3945,0.1705,0.4795,-0.3675,-0.112,-0.2425,-0.3225,-0.3145,-0.3035,-0.3175,-0.277,-0.018,0.155,0.211
-0.562,-0.3915,0.171,0.477,-0.3665,-0.1105,-0.2445,-0.325,-0.317,-0.3055,-0.32,-0.2795,-0.0185,0.157,0.213
-0.5615,-0.3895,0.1725,0.476,-0.367,-0.109,-0.2425,-0.3265,-0.316,-0.306,-0.3215,-0.2805,-0.0205,0.1545,0.2115
-0.564,-0.391,0.173,0.478,-0.3685,-0.109,-0.2405,-0.3245,-0.314,-0.305,-0.3205,-0.28,-0.0215,0.155,0.2105
-0.5685,-0.394,0.175,0.4815,-0.3715,-0.11,-0.238,-0.3205,-0.3115,-0.3025,-0.318,-0.2785,-0.021,0.153,0.211
-0.5605,-0.392,0.1695,0.4765,-0.365,-0.1115,-0.241,-0.3225,-0.3145,-0.305,-0.3195,-0.281,-0.0215,0.1525,0.2115
-0.5515,-0.3875,0.1645,0.47,-0.358,-0.1115,-0.244,-0.3275,-0.316,-0.307,-0.3215,-0.2835,-0.0205,0.1565,0.2095
-0.55,-0.3825,0.1685,0.4665,-0.3595,-0.107,-0.2355,-0.3225,-0.3095,-0.3015,-0.318,-0.2795,-0.022,0.156,0.208
-0.555,-0.378,0.1775,0.4665,-0.3665,-0.1005,-0.232,-0.3165,-0.3075,-0.299,-0.3155,-0.277,-0.022,0.1565,0.209
-0.559,-0.381,0.178,0.47,-0.3685,-0.1015,-0.237,-0.3195,-0.311,-0.301,-0.3165,-0.279,-0.0205,0.156,0.21
-0.5605,-0.384,0.177,0.4725,-0.369,-0.1035,-0.2355,-0.3215,-0.3125,-0.303,-0.3195,-0.2815,-0.0215,0.156,0.211
-0.561,-0.388,0.1735,0.4745,-0.3675,-0.1075,-0.2345,-0.3195,-0.311,-0.303,-0.321,-0.28,-0.021,0.153,0.211
-0.561,-0.394,0.1675,0.478,-0.3645,-0.1135,-0.2345,-0.32,-0.3105,-0.302,-0.3215,-0.281,-0.021,0.153,0.21
-0.555,-0.3975,0.1585,0.4765,-0.357,-0.12,-0.2355,-0.322,-0.3115,-0.3025,-0.322,-0.282,-0.021,0.1495,0.2105
-0.557,-0.395,0.1625,0.4765,-0.36,-0.1165,-0.2355,-0.322,-0.311,-0.303,-0.3205,-0.282,-0.0195,0.151,0.209
-0.5645,-0.3935,0.1715,0.479,-0.368,-0.1115,-0.2325,-0.317,-0.308,-0.3005,-0.319,-0.2795,-0.0185,0.1605,0.208
-0.5665,-0.3965,0.171,0.4815,-0.369,-0.113,-0.2345,-0.3185,-0.309,-0.3015,-0.3195,-0.2805,-0.021,0.1575,0.209
-0.5645,-0.3945,0.1705,0.48,-0.3675,-0.1125,-0.241,-0.3255,-0.3135,-0.3045,-0.3225,-0.2835,-0.0215,0.1575,0.2085
-0.5555,-0.3945,0.1615,0.475,-0.3585,-0.1165,-0.241,-0.3235,-0.3135,-0.303,-0.3235,-0.283,-0.0205,0.1515,0.2075
-0.556,-0.3965,0.16,0.4765,-0.358,-0.1185,-0.238,-0.322,-0.312,-0.3025,-0.323,-0.283,-0.022,0.1465,0.2075
-0.5635,-0.394,0.17,0.479,-0.3665,-0.1125,-0.234,-0.318,-0.309,-0.3,-0.3205,-0.281,-0.022,0.1535,0.2055
-0.574,-0.3925,0.182,0.4835,-0.378,-0.1055,-0.231,-0.3155,-0.307,-0.2975,-0.317,-0.2795,-0.023,0.155,0.204
-0.584,-0.3885,0.196,0.4865,-0.39,-0.0965,-0.229,-0.314,-0.3035,-0.2945,-0.314,-0.277,-0.023,0.156,0.204
-0.581,-0.3895,0.192,0.4855,-0.3865,-0.099,-0.2305,-0.3145,-0.3045,-0.2955,-0.3155,-0.279,-0.0235,0.1535,0.204
-0.552,-0.3875,0.165,0.47,-0.3585,-0.1115,-0.2325,-0.3175,-0.3075,-0.298,-0.3175,-0.28,-0.0225,0.148,0.205
-0.535,-0.3765,0.159,0.456,-0.347,-0.109,-0.2305,-0.3165,-0.3055,-0.296,-0.314,-0.276,-0.0215,0.147,0.205
-0.548,-0.38,0.1685,0.464,-0.358,-0.106,-0.234,-0.3185,-0.3065,-0.2975,-0.316,-0.28,-0.022,0.1535,0.203
-0.5535,-0.386,0.168,0.47,-0.3605,-0.1095,-0.2325,-0.318,-0.3075,-0.3005,-0.3205,-0.2825,-0.0245,0.159,0.2035
-0.5545,-0.384,0.171,0.4695,-0.363,-0.1065,-0.2335,-0.321,-0.309,-0.3005,-0.3205,-0.2825,-0.025,0.154,0.203
-0.559,-0.3855,0.1745,0.4725,-0.367,-0.106,-0.234,-0.32,-0.3085,-0.2985,-0.3205,-0.2825,-0.024,0.153,0.203
-0.561,-0.387,0.1745,0.474,-0.3675,-0.1065,-0.2305,-0.3175,-0.3065,-0.2985,-0.3205,-0.2825,-0.024,0.1555,0.2035
-0.559,-0.388,0.1715,0.4735,-0.365,-0.1085,-0.236,-0.3185,-0.306,-0.299,-0.3185,-0.2815,-0.023,0.15,0.2035
-0.556,-0.3885,0.1685,0.4725,-0.362,-0.1105,-0.2325,-0.317,-0.3055,-0.2985,-0.319,-0.2805,-0.0225,0.1505,0.2035
-0.555,-0.386,0.1695,0.471,-0.362,-0.1085,-0.231,-0.319,-0.306,-0.2975,-0.318,-0.2815,-0.022,0.1565,0.2025
-0.555,-0.3825,0.173,0.469,-0.364,-0.105,-0.2365,-0.3215,-0.307,-0.299,-0.3205,-0.285,-0.023,0.159,0.2015
-0.556,-0.388,0.1685,0.4725,-0.362,-0.11,-0.236,-0.3225,-0.309,-0.303,-0.326,-0.289,-0.026,0.155,0.2
-0.558,-0.392,0.166,0.475,-0.362,-0.113,-0.237,-0.322,-0.308,-0.3015,-0.325,-0.287,-0.025,0.153,0.2005
-0.557,-0.382,0.1755,0.4695,-0.3665,-0.1035,-0.2355,-0.32,-0.307,-0.2995,-0.3235,-0.285,-0.0245,0.1575,0.201
-0.554,-0.3805,0.1745,0.4675,-0.3645,-0.1035,-0.2315,-0.3165,-0.3035,-0.295,-0.319,-0.2825,-0.0245,0.1565,0.1995
-0.5545,-0.384,0.1715,0.4695,-0.363,-0.1065,-0.226,-0.31,-0.2985,-0.289,-0.314,-0.277,-0.024,0.152,0.199
-0.5545,-0.3815,0.1735,0.468,-0.364,-0.104,-0.2265,-0.309,-0.298,-0.2895,-0.3145,-0.2765,-0.0235,0.1515,0.199
-0.551,-0.3785,0.173,0.465,-0.362,-0.103,-0.232,-0.3155,-0.3005,-0.2935,-0.3175,-0.2815,-0.024,0.154,0.1985
-0.553,-0.3755,0.1775,0.4645,-0.3655,-0.0995,-0.2295,-0.3145,-0.3015,-0.292,-0.3175,-0.2815,-0.0255,0.154,0.198
-0.5595,-0.3775,0.1825,0.4685,-0.371,-0.0975,-0.227,-0.312,-0.3,-0.291,-0.316,-0.2795,-0.0255,0.1535,0.198
-0.562,-0.3825,0.18,0.4725,-0.371,-0.1015,-0.225,-0.3085,-0.295,-0.2865,-0.312,-0.278,-0.0245,0.154,0.197
-0.5595,-0.381,0.179,0.47,-0.369,-0.101,-0.2265,-0.31,-0.296,-0.2885,-0.315,-0.2795,-0.024,0.157,0.1965
-0.5545,-0.3785,0.1765,0.4665,-0.3655,-0.101,-0.2295,-0.3135,-0.3,-0.2925,-0.321,-0.284,-0.0265,0.1595,0.1975
-0.5515,-0.3775,0.1745,0.465,-0.363,-0.1015,-0.227,-0.3095,-0.298,-0.291,-0.3195,-0.2835,-0.026,0.16,0.1965
-0.551,-0.3765,0.175,0.464,-0.363,-0.101,-0.2325,-0.3125,-0.298,-0.292,-0.3195,-0.2845,-0.025,0.162,0.197
-0.55,-0.378,0.172,0.4645,-0.361,-0.103,-0.235,-0.3135,-0.3005,-0.2935,-0.32,-0.286,-0.027,0.158,0.198
-0.545,-0.3765,0.169,0.461,-0.357,-0.104,-0.2305,-0.3125,-0.301,-0.2935,-0.3185,-0.285,-0.0255,0.1515,0.198
-0.5395,-0.3755,0.165,0.4575,-0.3525,-0.1055,-0.2295,-0.3105,-0.298,-0.2915,-0.3165,-0.284,-0.0245,0.1535,0.1975
-0.5425,-0.378,0.165,0.4605,-0.354,-0.1065,-0.2275,-0.3085,-0.296,-0.29,-0.3155,-0.284,-0.025,0.1575,0.1975
-0.5485,-0.38,0.169,0.4645,-0.359,-0.106,-0.2285,-0.3095,-0.2965,-0.29,-0.3155,-0.2835,-0.0235,0.1575,0.1975
-0.5515,-0.38,0.172,0.466,-0.362,-0.104,-0.231,-0.311,-0.2985,-0.2925,-0.318,-0.285,-0.024,0.1595,0.1955
-0.55,-0.3785,0.172,0.4645,-0.361,-0.1035,-0.2295,-0.3095,-0.296,-0.2895,-0.3145,-0.283,-0.0235,0.1605,0.195
-0.548,-0.376,0.1725,0.4625,-0.3605,-0.102,-0.2275,-0.307,-0.294,-0.287,-0.3125,-0.2795,-0.022,0.16,0.1975
-0.554,-0.3755,0.179,0.465,-0.3665,-0.0985,-0.227,-0.307,-0.2935,-0.2865,-0.3125,-0.28,-0.022,0.1555,0.1965
-0.554,-0.3745,0.1795,0.4645,-0.3665,-0.098,-0.2255,-0.304,-0.29,-0.2835,-0.309,-0.2775,-0.021,0.1535,0.1955
-0.554,-0.379,0.1755,0.4665,-0.365,-0.102,-0.226,-0.307,-0.292,-0.286,-0.3135,-0.2805,-0.022,0.153,0.196
-0.5545,-0.3845,0.1705,0.47,-0.3625,-0.107,-0.2295,-0.3115,-0.295,-0.2895,-0.3155,-0.2845,-0.022,0.152,0.1945
-0.553,-0.38,0.1735,0.467,-0.363,-0.1035,-0.2325,-0.3125,-0.296,-0.29,-0.316,-0.2855,-0.0215,0.158,0.1945
-0.5605,-0.378,0.183,0.4695,-0.3715,-0.098,-0.2285,-0.309,-0.2945,-0.287,-0.314,-0.2835,-0.0215,0.157,0.1945
-0.5645,-0.38,0.1855,0.4725,-0.375,-0.0975,-0.2275,-0.305,-0.2915,-0.285,-0.3105,-0.282,-0.023,0.153,0.1925
-0.553,-0.3825,0.171,0.468,-0.362,-0.106,-0.231,-0.31,-0.295,-0.289,-0.3155,-0.286,-0.0235,0.1525,0.194
-0.542,-0.379,0.1635,0.4605,-0.353,-0.108,-0.233,-0.314,-0.299,-0.292,-0.319,-0.2885,-0.022,0.155,0.196
-0.5475,-0.376,0.172,0.462,-0.3595,-0.1025,-0.2315,-0.312,-0.2965,-0.2905,-0.316,-0.2885,-0.0235,0.16,0.1935
-0.554,-0.3795,0.1755,0.467,-0.365,-0.102,-0.2285,-0.3095,-0.2945,-0.289,-0.316,-0.288,-0.0245,0.1615,0.1925
-0.559,-0.378,0.1815,0.469,-0.3705,-0.0985,-0.227,-0.3085,-0.2925,-0.2885,-0.3145,-0.2865,-0.024,0.1615,0.192
-0.565,-0.3795,0.186,0.472,-0.3755,-0.097,-0.223,-0.3055,-0.29,-0.2875,-0.3115,-0.2845,-0.0235,0.1565,0.1935
-0.5635,-0.3815,0.182,0.4725,-0.3725,-0.1,-0.2235,-0.3075,-0.292,-0.287,-0.313,-0.286,-0.0245,0.1515,0.195
-0.554,-0.385,0.1695,0.47,-0.3615,-0.108,-0.2305,-0.311,-0.294,-0.2895,-0.3145,-0.288,-0.025,0.1525,0.194
-0.548,-0.3855,0.1635,0.467,-0.356,-0.1115,-0.2355,-0.3125,-0.294,-0.2915,-0.315,-0.2865,-0.0225,0.1525,0.1955
-0.553,-0.384,0.1695,0.4685,-0.361,-0.1075,-0.2285,-0.3085,-0.2915,-0.289,-0.312,-0.287,-0.0235,0.156,0.194
-0.5555,-0.3805,0.176,0.468,-0.366,-0.1025,-0.229,-0.3085,-0.292,-0.2895,-0.313,-0.288,-0.024,0.161,0.1915
-0.5585,-0.382,0.1765,0.4705,-0.3675,-0.103,-0.23,-0.3095,-0.2925,-0.289,-0.313,-0.287,-0.0245,0.158,0.1915
-0.5595,-0.3865,0.173,0.473,-0.366,-0.107,-0.227,-0.3075,-0.2905,-0.2865,-0.309,-0.285,-0.0245,0.152,0.1925
-0.5555,-0.385,0.1715,0.4705,-0.3635,-0.107,-0.231,-0.3095,-0.2915,-0.287,-0.311,-0.2855,-0.0235,0.154,0.1935
-0.548,-0.385,0.1635,0.467,-0.3555,-0.111,-0.2305,-0.31,-0.293,-0.2875,-0.312,-0.287,-0.0245,0.1565,0.1925
-0.5495,-0.386,0.164,0.468,-0.3565,-0.1115,-0.2295,-0.308,-0.291,-0.2875,-0.3115,-0.287,-0.024,0.156,0.191
-0.554,-0.3835,0.171,0.469,-0.3625,-0.1065,-0.226,-0.3055,-0.2885,-0.284,-0.3085,-0.284,-0.0235,0.157,0.1905
-0.5505,-0.3795,0.1715,0.4655,-0.361,-0.1045,-0.2275,-0.3055,-0.289,-0.2845,-0.3085,-0.284,-0.024,0.1585,0.1915
-0.5565,-0.378,0.179,0.4675,-0.3675,-0.0995,-0.2275,-0.307,-0.288,-0.284,-0.3065,-0.2825,-0.0245,0.1585,0.192
-0.5645,-0.374,0.191,0.4695,-0.3775,-0.092,-0.22,-0.2985,-0.28,-0.2755,-0.2975,-0.275,-0.0245,0.1565,0.1915
-0.568,-0.3795,0.189,0.474,-0.3785,-0.0955,-0.216,-0.2925,-0.2765,-0.2735,-0.2975,-0.274,-0.025,0.1515,0.191
-0.556,-0.379,0.1775,0.4675,-0.367,-0.101,-0.2215,-0.3,-0.283,-0.279,-0.302,-0.2775,-0.0255,0.1515,0.1905
-0.5465,-0.377,0.17,0.462,-0.3585,-0.1035,-0.226,-0.304,-0.2875,-0.2815,-0.304,-0.281,-0.026,0.1525,0.1905
-0.5425,-0.379,0.164,0.461,-0.353,-0.108,-0.2255,-0.306,-0.29,-0.2845,-0.306,-0.284,-0.028,0.154,0.1895
-0.5335,-0.3755,0.1585,0.4545,-0.346,-0.1085,-0.23,-0.309,-0.2915,-0.287,-0.3085,-0.2855,-0.0275,0.157,0.19
-0.535,-0.3735,0.1615,0.4545,-0.3485,-0.106,-0.2295,-0.307,-0.29,-0.285,-0.3065,-0.283,-0.0265,0.156,0.1925
-0.5435,-0.373,0.171,0.4585,-0.357,-0.101,-0.2245,-0.303,-0.286,-0.283,-0.303,-0.28,-0.0265,0.1565,0.1925
-0.548,-0.379,0.1695,0.4635,-0.3585,-0.105,-0.226,-0.3035,-0.2865,-0.283,-0.3045,-0.2815,-0.027,0.1565,0.193
-0.539,-0.377,0.1625,0.4585,-0.351,-0.1075,-0.2255,-0.304,-0.2865,-0.2825,-0.3035,-0.2805,-0.027,0.1565,0.193
-0.5415,-0.37,0.172,0.456,-0.357,-0.0995,-0.219,-0.299,-0.28,-0.278,-0.299,-0.2755,-0.027,0.1555,0.193
-0.551,-0.37,0.1815,0.461,-0.3665,-0.0945,-0.221,-0.3005,-0.285,-0.281,-0.301,-0.2785,-0.0285,0.1565,0.193
-0.553,-0.376,0.1775,0.4645,-0.365,-0.0995,-0.2265,-0.3035,-0.2885,-0.285,-0.3035,-0.2805,-0.0295,0.154,0.194
-0.5505,-0.376,0.175,0.463,-0.3625,-0.1005,-0.2235,-0.302,-0.2865,-0.282,-0.3035,-0.28,-0.0295,0.152,0.195
-0.5445,-0.3735,0.1715,0.4595,-0.358,-0.101,-0.223,-0.302,-0.288,-0.2825,-0.3035,-0.279,-0.0275,0.1515,0.195
-0.5455,-0.3735,0.1725,0.4595,-0.359,-0.101,-0.2235,-0.304,-0.288,-0.283,-0.3035,-0.278,-0.0275,0.151,0.195
-0.547,-0.3715,0.1755,0.4595,-0.361,-0.0985,-0.2225,-0.304,-0.288,-0.281,-0.303,-0.279,-0.0295,0.152,0.194
-0.5455,-0.3715,0.1745,0.4585,-0.36,-0.0985,-0.2255,-0.302,-0.288,-0.281,-0.3015,-0.278,-0.03,0.152,0.194
-0.5435,-0.37,0.174,0.457,-0.359,-0.098,-0.227,-0.302,-0.2885,-0.282,-0.301,-0.278,-0.0295,0.1515,0.1955
-0.537,-0.37,0.168,0.4535,-0.3525,-0.1015,-0.222,-0.3025,-0.2875,-0.2815,-0.3005,-0.277,-0.0295,0.148,0.196
-0.528,-0.371,0.158,0.45,-0.343,-0.107,-0.225,-0.3045,-0.2915,-0.285,-0.305,-0.2795,-0.0295,0.149,0.197
-0.529,-0.3795,0.15,0.4545,-0.34,-0.115,-0.2295,-0.3085,-0.2945,-0.2895,-0.309,-0.2825,-0.0295,0.1435,0.1985
-0.5345,-0.3805,0.1545,0.458,-0.3445,-0.113,-0.2295,-0.3095,-0.2955,-0.29,-0.309,-0.283,-0.0285,0.142,0.199
-0.5335,-0.377,0.157,0.456,-0.3455,-0.1105,-0.23,-0.309,-0.297,-0.29,-0.3095,-0.284,-0.0285,0.147,0.198
-0.5305,-0.3785,0.1525,0.4545,-0.3415,-0.113,-0.231,-0.3115,-0.2975,-0.2935,-0.3125,-0.2855,-0.0305,0.1485,0.197
-0.526,-0.376,0.1505,0.451,-0.338,-0.113,-0.236,-0.3145,-0.302,-0.2955,-0.315,-0.287,-0.0295,0.1515,0.199
-0.528,-0.3745,0.154,0.4515,-0.341,-0.1105,-0.2325,-0.312,-0.301,-0.2945,-0.3125,-0.285,-0.0285,0.15,0.2
-0.5355,-0.376,0.16,0.456,-0.3475,-0.1085,-0.227,-0.308,-0.297,-0.2915,-0.311,-0.2825,-0.03,0.1495,0.2005
-0.544,-0.38,0.1645,0.4625,-0.3545,-0.108,-0.225,-0.304,-0.293,-0.289,-0.307,-0.2785,-0.029,0.152,0.2015
-0.555,-0.3815,0.174,0.4685,-0.3645,-0.104,-0.2215,-0.301,-0.2905,-0.2865,-0.3035,-0.275,-0.028,0.151,0.2015
-0.5545,-0.3795,0.1755,0.4675,-0.365,-0.102,-0.2255,-0.3055,-0.2935,-0.2875,-0.307,-0.2765,-0.0285,0.1515,0.203
-0.5475,-0.376,0.172,0.462,-0.36,-0.102,-0.229,-0.3085,-0.2965,-0.293,-0.3105,-0.2805,-0.03,0.1565,0.2025
-0.542,-0.3775,0.1655,0.46,-0.3535,-0.1065,-0.2275,-0.3075,-0.2985,-0.293,-0.3115,-0.281,-0.03,0.1585,0.2015
-0.539,-0.3785,0.161,0.459,-0.35,-0.109,-0.229,-0.309,-0.2995,-0.294,-0.3115,-0.2805,-0.029,0.1555,0.2025
-0.539,-0.3785,0.161,0.459,-0.35,-0.1095,-0.2315,-0.309,-0.2985,-0.2945,-0.311,-0.28,-0.0285,0.1535,0.2035
-0.5435,-0.3835,0.1605,0.4635,-0.352,-0.1115,-0.2305,-0.31,-0.2995,-0.293,-0.3125,-0.2805,-0.028,0.1485,0.204
-0.546,-0.384,0.162,0.4655,-0.354,-0.1115,-0.2305,-0.3115,-0.3015,-0.295,-0.313,-0.282,-0.029,0.1465,0.2035
-0.542,-0.3835,0.1585,0.463,-0.3505,-0.1125,-0.231,-0.3105,-0.3025,-0.295,-0.312,-0.2815,-0.0285,0.1485,0.203
-0.5445,-0.382,0.163,0.4635,-0.3535,-0.11,-0.229,-0.3095,-0.302,-0.295,-0.313,-0.2805,-0.029,0.1505,0.2035
-0.5465,-0.38,0.167,0.4635,-0.3565,-0.1065,-0.2295,-0.3105,-0.3025,-0.2945,-0.312,-0.2805,-0.0295,0.15,0.2045
-0.543,-0.3805,0.163,0.462,-0.353,-0.109,-0.229,-0.3105,-0.3025,-0.294,-0.3125,-0.281,-0.03,0.146,0.203
-0.5325,-0.3755,0.1575,0.4545,-0.345,-0.1095,-0.228,-0.308,-0.2985,-0.2905,-0.309,-0.2775,-0.029,0.1445,0.2045
-0.5285,-0.372,0.157,0.4505,-0.3425,-0.1075,-0.229,-0.309,-0.3,-0.292,-0.31,-0.2775,-0.0295,0.1445,0.205
-0.5305,-0.373,0.158,0.452,-0.344,-0.108,-0.228,-0.3105,-0.302,-0.295,-0.3145,-0.28,-0.031,0.152,0.2035
-0.532,-0.37,0.163,0.451,-0.3475,-0.104,-0.226,-0.3075,-0.2995,-0.292,-0.311,-0.2775,-0.03,0.1505,0.203
-0.534,-0.367,0.1675,0.4505,-0.3505,-0.1,-0.2255,-0.307,-0.298,-0.2925,-0.3125,-0.278,-0.0315,0.147,0.203
-0.533,-0.365,0.1685,0.449,-0.3505,-0.0985,-0.226,-0.3085,-0.2985,-0.293,-0.3125,-0.2785,-0.0325,0.15,0.2035
-0.5305,-0.3645,0.1665,0.448,-0.3485,-0.0995,-0.227,-0.309,-0.301,-0.2935,-0.313,-0.2795,-0.0335,0.1495,0.2025
-0.5245,-0.368,0.157,0.4465,-0.341,-0.1055,-0.2295,-0.3095,-0.3015,-0.295,-0.3145,-0.281,-0.032,0.151,0.2025
-0.5325,-0.369,0.1635,0.451,-0.348,-0.103,-0.2305,-0.3075,-0.2995,-0.293,-0.3115,-0.2775,-0.0295,0.154,0.201
-0.5305,-0.367,0.164,0.449,-0.3475,-0.102,-0.2345,-0.3125,-0.303,-0.296,-0.3155,-0.2795,-0.0305,0.156,0.2005
-0.53,-0.3625,0.168,0.4465,-0.349,-0.0975,-0.2355,-0.317,-0.3045,-0.298,-0.316,-0.281,-0.032,0.1575,0.2
-0.535,-0.358,0.1775,0.4465,-0.356,-0.0905,-0.231,-0.313,-0.301,-0.294,-0.3125,-0.277,-0.033,0.16,0.197
-0.5265,-0.3515,0.1755,0.4395,-0.351,-0.0885,-0.234,-0.3135,-0.298,-0.291,-0.313,-0.2755,-0.0335,0.162,0.1945
-0.524,-0.348,0.1765,0.436,-0.35,-0.086,-0.239,-0.315,-0.2985,-0.2895,-0.3105,-0.274,-0.0325,0.169,0.192
-0.5305,-0.342,0.189,0.4365,-0.36,-0.0765,-0.2305,-0.3145,-0.2975,-0.286,-0.3085,-0.2695,-0.0335,0.18,0.188
-0.5365,-0.334,0.2035,0.4355,-0.37,-0.0655,-0.2275,-0.312,-0.2945,-0.282,-0.306,-0.267,-0.036,0.1865,0.183
-0.533,-0.3295,0.204,0.4315,-0.3685,-0.063,-0.231,-0.3105,-0.2935,-0.2805,-0.3045,-0.2675,-0.036,0.1905,0.181
-0.532,-0.322,0.211,0.4275,-0.3715,-0.056,-0.231,-0.3135,-0.2935,-0.2805,-0.3065,-0.268,-0.036,0.1955,0.1795
-0.5325,-0.318,0.2155,0.4255,-0.374,-0.0515,-0.233,-0.314,-0.295,-0.2815,-0.307,-0.27,-0.037,0.1985,0.179
-0.531,-0.3165,0.215,0.424,-0.373,-0.051,-0.232,-0.313,-0.294,-0.2795,-0.3055,-0.268,-0.036,0.1995,0.1785
-0.5265,-0.3195,0.2075,0.423,-0.367,-0.056,-0.2315,-0.313,-0.293,-0.2785,-0.304,-0.2665,-0.0335,0.1945,0.178
-0.525,-0.319,0.2065,0.4225,-0.366,-0.0565,-0.2335,-0.3135,-0.2935,-0.278,-0.303,-0.2665,-0.033,0.1935,0.1785
-0.5255,-0.3155,0.2105,0.4205,-0.368,-0.0525,-0.2335,-0.3135,-0.2925,-0.277,-0.3025,-0.265,-0.0335,0.2,0.1775
-0.524,-0.315,0.2095,0.42,-0.367,-0.053,-0.231,-0.312,-0.2925,-0.278,-0.304,-0.267,-0.0355,0.198,0.1765
-0.521,-0.3135,0.208,0.4175,-0.3645,-0.053,-0.232,-0.3125,-0.2935,-0.278,-0.305,-0.2685,-0.037,0.1985,0.176
-0.518,-0.3125,0.206,0.4155,-0.362,-0.0535,-0.231,-0.313,-0.293,-0.2795,-0.3045,-0.268,-0.036,0.2005,0.1755
-0.52,-0.3145,0.2065,0.4175,-0.3635,-0.0545,-0.233,-0.317,-0.2955,-0.283,-0.307,-0.27,-0.0365,0.1955,0.177
-0.518,-0.3145,0.2035,0.4165,-0.361,-0.056,-0.2375,-0.3215,-0.2975,-0.2835,-0.3075,-0.2705,-0.038,0.1995,0.1755
-0.5205,-0.3115,0.2095,0.416,-0.365,-0.051,-0.2325,-0.318,-0.294,-0.2805,-0.306,-0.2685,-0.038,0.2075,0.1735
-0.5305,-0.3065,0.225,0.4185,-0.3775,-0.041,-0.228,-0.313,-0.288,-0.2745,-0.2995,-0.264,-0.037,0.2115,0.172
-0.5375,-0.301,0.237,0.4195,-0.3875,-0.032,-0.2305,-0.3145,-0.29,-0.2765,-0.3005,-0.266,-0.0385,0.217,0.1695
-0.548,-0.308,0.2405,0.428,-0.3945,-0.034,-0.2315,-0.3155,-0.2905,-0.2765,-0.3035,-0.267,-0.039,0.215,0.1705
-0.5425,-0.309,0.234,0.426,-0.388,-0.0375,-0.2345,-0.3165,-0.2885,-0.2735,-0.2995,-0.266,-0.0365,0.211,0.1715
-0.52,-0.3065,0.2145,0.4135,-0.367,-0.046,-0.242,-0.324,-0.2995,-0.284,-0.31,-0.2725,-0.0355,0.2095,0.1745
-0.517,-0.31,0.2075,0.4135,-0.362,-0.0515,-0.243,-0.3245,-0.3005,-0.2845,-0.3105,-0.273,-0.035,0.206,0.175
-0.5165,-0.3055,0.212,0.4115,-0.3645,-0.047,-0.244,-0.327,-0.2985,-0.2835,-0.308,-0.273,-0.0345,0.2095,0.173
-0.5145,-0.3035,0.2115,0.409,-0.363,-0.0465,-0.2465,-0.327,-0.297,-0.2825,-0.307,-0.2715,-0.032,0.213,0.1745
-0.5175,-0.308,0.21,0.413,-0.364,-0.049,-0.246,-0.3215,-0.295,-0.2775,-0.3005,-0.2685,-0.0295,0.21,0.175
-0.518,-0.308,0.21,0.413,-0.364,-0.049,-0.2445,-0.321,-0.294,-0.2775,-0.2995,-0.267,-0.0285,0.2095,0.175
-0.517,-0.3025,0.215,0.41,-0.366,-0.044,-0.2415,-0.316,-0.2875,-0.2715,-0.293,-0.2635,-0.027,0.2085,0.177
-0.517,-0.304,0.2135,0.4105,-0.365,-0.0455,-0.2375,-0.3125,-0.2835,-0.2675,-0.288,-0.26,-0.025,0.2045,0.1775
-0.514,-0.306,0.2085,0.4105,-0.3615,-0.049,-0.241,-0.316,-0.2855,-0.27,-0.291,-0.2625,-0.0235,0.2065,0.1775
-0.5145,-0.31,0.2055,0.4125,-0.36,-0.0525,-0.2445,-0.3185,-0.2885,-0.273,-0.295,-0.2685,-0.0245,0.205,0.176
-0.5215,-0.311,0.211,0.4165,-0.3665,-0.0505,-0.2385,-0.3155,-0.286,-0.2715,-0.295,-0.269,-0.025,0.2015,0.172
-0.523,-0.3075,0.216,0.4155,-0.3695,-0.046,-0.238,-0.314,-0.284,-0.269,-0.293,-0.2675,-0.0235,0.2015,0.1685
-0.519,-0.305,0.2145,0.412,-0.367,-0.0455,-0.242,-0.3145,-0.282,-0.2665,-0.29,-0.2655,-0.02,0.2025,0.1675
-0.5085,-0.3,0.209,0.4045,-0.3585,-0.046,-0.241,-0.3115,-0.2815,-0.2645,-0.288,-0.264,-0.0155,0.2065,0.169
-0.5045,-0.3005,0.2045,0.403,-0.3545,-0.048,-0.2395,-0.31,-0.2785,-0.2625,-0.2835,-0.26,-0.0125,0.203,0.172
-0.5055,-0.302,0.204,0.4045,-0.355,-0.0495,-0.2375,-0.3035,-0.2715,-0.256,-0.277,-0.2545,-0.0075,0.1915,0.174
-0.5105,-0.3045,0.2065,0.4075,-0.3585,-0.049,-0.237,-0.2975,-0.2675,-0.253,-0.274,-0.254,-0.002,0.196,0.1745
-0.518,-0.307,0.211,0.413,-0.3645,-0.048,-0.243,-0.304,-0.2715,-0.256,-0.2765,-0.255,0.002,0.203,0.177
-0.5155,-0.307,0.2095,0.4115,-0.3625,-0.049,-0.2465,-0.307,-0.2725,-0.256,-0.2795,-0.2555,0.002,0.199,0.1785
-0.502,-0.298,0.2045,0.4005,-0.3535,-0.047,-0.2515,-0.312,-0.2735,-0.256,-0.2765,-0.254,0.004,0.205,0.178
-0.485,-0.2865,0.1985,0.386,-0.3415,-0.0445,-0.26,-0.3185,-0.2765,-0.256,-0.275,-0.2515,0.008,0.213,0.1785
-0.4855,-0.2835,0.2025,0.3845,-0.344,-0.0405,-0.262,-0.3195,-0.2765,-0.256,-0.2755,-0.2505,0.007,0.2215,0.1785
-0.4875,-0.278,0.2105,0.383,-0.349,-0.034,-0.2645,-0.323,-0.279,-0.2565,-0.273,-0.249,0.0085,0.2355,0.1795
-0.4875,-0.272,0.2165,0.38,-0.352,-0.028,-0.273,-0.326,-0.2815,-0.2565,-0.271,-0.247,0.011,0.2365,0.185
-0.49,-0.2755,0.2155,0.383,-0.353,-0.0305,-0.2795,-0.331,-0.285,-0.26,-0.272,-0.2485,0.01,0.2325,0.19
-0.494,-0.2835,0.211,0.389,-0.352,-0.0365,-0.2815,-0.3325,-0.2895,-0.265,-0.2755,-0.252,0.0085,0.2275,0.194
-0.496,-0.2935,0.203,0.395,-0.3495,-0.0455,-0.2815,-0.332,-0.293,-0.2695,-0.2775,-0.2535,0.0095,0.218,0.2015
-0.49,-0.3025,0.1885,0.3965,-0.3395,-0.0575,-0.284,-0.3335,-0.2975,-0.2745,-0.279,-0.254,0.0115,0.2105,0.21
-0.488,-0.3015,0.187,0.395,-0.3375,-0.0575,-0.2905,-0.3405,-0.3045,-0.2805,-0.281,-0.2545,0.012,0.214,0.218
-0.4855,-0.3,0.186,0.393,-0.336,-0.057,-0.2945,-0.3445,-0.3125,-0.288,-0.284,-0.2575,0.0125,0.2175,0.226
-0.4825,-0.3035,0.18,0.393,-0.3315,-0.062,-0.2985,-0.345,-0.3165,-0.292,-0.286,-0.2595,0.013,0.2135,0.231
-0.4875,-0.3095,0.178,0.399,-0.3325,-0.066,-0.2965,-0.3465,-0.318,-0.295,-0.285,-0.2575,0.0125,0.209,0.236
-0.495,-0.3165,0.179,0.4065,-0.337,-0.069,-0.295,-0.3465,-0.3205,-0.2975,-0.287,-0.259,0.01,0.2055,0.24
-0.496,-0.32,0.176,0.4085,-0.336,-0.0725,-0.2985,-0.3485,-0.325,-0.3025,-0.29,-0.262,0.009,0.206,0.2425
-0.503,-0.3315,0.1715,0.4175,-0.337,-0.0805,-0.2955,-0.348,-0.327,-0.3065,-0.2935,-0.2645,0.006,0.2035,0.246
-0.5085,-0.3405,0.169,0.4245,-0.3385,-0.086,-0.295,-0.348,-0.326,-0.307,-0.293,-0.265,0.0035,0.1955,0.25
-0.5075,-0.3435,0.1645,0.426,-0.336,-0.0895,-0.2965,-0.3485,-0.3295,-0.3115,-0.2955,-0.267,0.0025,0.1935,0.253
-0.5005,-0.341,0.16,0.4215,-0.3305,-0.0905,-0.298,-0.353,-0.336,-0.318,-0.3035,-0.2725,0.001,0.199,0.2515
-0.4955,-0.344,0.152,0.42,-0.3235,-0.0965,-0.296,-0.3515,-0.3355,-0.3165,-0.303,-0.272,0.002,0.1915,0.253
-0.496,-0.3475,0.149,0.422,-0.3225,-0.0995,-0.2905,-0.3435,-0.3305,-0.3125,-0.2975,-0.269,0.0065,0.1835,0.2535
-0.4815,-0.3375,0.1445,0.4095,-0.313,-0.0965,-0.2895,-0.3405,-0.3285,-0.3105,-0.2935,-0.2645,0.013,0.1835,0.2535
-0.4785,-0.337,0.142,0.408,-0.31,-0.0975,-0.2895,-0.341,-0.327,-0.311,-0.2915,-0.2625,0.0145,0.1845,0.256
-0.4795,-0.334,0.146,0.407,-0.3125,-0.0945,-0.2875,-0.3405,-0.328,-0.3105,-0.292,-0.2635,0.0125,0.1905,0.253
-0.4785,-0.3265,0.153,0.4025,-0.316,-0.087,-0.2915,-0.3435,-0.33,-0.308,-0.2915,-0.2605,0.0135,0.191,0.251
-0.4945,-0.3305,0.1645,0.4125,-0.3295,-0.083,-0.2935,-0.346,-0.326,-0.306,-0.2885,-0.257,0.014,0.195,0.2495
-0.4935,-0.326,0.1675,0.41,-0.3305,-0.0795,-0.285,-0.338,-0.32,-0.301,-0.2825,-0.2545,0.0125,0.193,0.245
-0.481,-0.325,0.156,0.403,-0.3185,-0.085,-0.281,-0.338,-0.3225,-0.304,-0.286,-0.2565,0.009,0.1805,0.2475
-0.4805,-0.3355,0.1455,0.408,-0.313,-0.095,-0.281,-0.338,-0.327,-0.3095,-0.2925,-0.26,0.0055,0.177,0.252
-0.486,-0.3355,0.151,0.411,-0.3185,-0.0925,-0.2815,-0.34,-0.33,-0.3125,-0.2935,-0.262,0.004,0.1775,0.2535
-0.489,-0.337,0.152,0.413,-0.3205,-0.0925,-0.283,-0.346,-0.333,-0.3165,-0.2945,-0.2625,0.001,0.18,0.2555
-0.493,-0.3415,0.1525,0.4175,-0.3225,-0.095,-0.284,-0.347,-0.3345,-0.318,-0.2975,-0.264,-0.002,0.1855,0.2545
-0.5025,-0.3405,0.1625,0.422,-0.3325,-0.089,-0.282,-0.3475,-0.3345,-0.317,-0.2975,-0.2665,-0.0045,0.189,0.2505
-0.5035,-0.3415,0.1625,0.423,-0.333,-0.09,-0.276,-0.3415,-0.33,-0.314,-0.2955,-0.267,-0.0055,0.181,0.247
-0.506,-0.3505,0.156,0.4285,-0.331,-0.0975,-0.2715,-0.341,-0.327,-0.314,-0.298,-0.267,-0.0075,0.172,0.2455
-0.5165,-0.358,0.159,0.4375,-0.3375,-0.1,-0.2695,-0.344,-0.328,-0.3125,-0.2995,-0.267,-0.009,0.175,0.2405
-0.514,-0.3625,0.152,0.4385,-0.333,-0.1055,-0.2685,-0.3465,-0.3315,-0.317,-0.3035,-0.2725,-0.011,0.17,0.238
-0.505,-0.3605,0.145,0.433,-0.325,-0.108,-0.2685,-0.3495,-0.334,-0.3205,-0.308,-0.2775,-0.0135,0.1695,0.236
-0.5065,-0.3495,0.1575,0.4285,-0.332,-0.0965,-0.267,-0.349,-0.3315,-0.317,-0.3075,-0.2785,-0.014,0.1805,0.228
-0.5135,-0.35,0.164,0.432,-0.3385,-0.0935,-0.264,-0.3455,-0.3285,-0.316,-0.3065,-0.278,-0.015,0.181,0.226
-0.518,-0.3565,0.1615,0.4375,-0.34,-0.0975,-0.2605,-0.3435,-0.328,-0.315,-0.308,-0.278,-0.0155,0.174,0.2255
-0.524,-0.3625,0.162,0.4435,-0.343,-0.1005,-0.2595,-0.3435,-0.328,-0.316,-0.308,-0.2785,-0.0175,0.1655,0.2255
-0.53,-0.365,0.165,0.4475,-0.3475,-0.1,-0.257,-0.34,-0.326,-0.3135,-0.306,-0.2765,-0.0185,0.161,0.224
-0.531,-0.364,0.167,0.448,-0.349,-0.099,-0.2485,-0.338,-0.324,-0.312,-0.306,-0.2785,-0.02,0.1605,0.219
-0.5235,-0.3675,0.1565,0.446,-0.34,-0.1055,-0.2545,-0.343,-0.33,-0.3185,-0.314,-0.2855,-0.021,0.1575,0.218
-0.5195,-0.3665,0.1535,0.4435,-0.3365,-0.1065,-0.26,-0.3435,-0.3315,-0.3215,-0.3175,-0.2885,-0.0225,0.1525,0.218
-0.5265,-0.366,0.161,0.4465,-0.344,-0.103,-0.2525,-0.338,-0.328,-0.319,-0.317,-0.29,-0.0275,0.151,0.218
-0.533,-0.3775,0.156,0.4555,-0.3445,-0.111,-0.253,-0.342,-0.333,-0.324,-0.322,-0.293,-0.03,0.1455,0.2215
-0.537,-0.386,0.151,0.4615,-0.344,-0.118,-0.2505,-0.342,-0.3325,-0.3275,-0.323,-0.2925,-0.031,0.1405,0.226
-0.5395,-0.384,0.156,0.462,-0.3475,-0.114,-0.2515,-0.341,-0.333,-0.3275,-0.3245,-0.2945,-0.033,0.143,0.225
-0.5395,-0.3835,0.157,0.462,-0.3485,-0.1135,-0.254,-0.3415,-0.332,-0.328,-0.3255,-0.2965,-0.0345,0.146,0.2225
-0.5385,-0.3835,0.155,0.4615,-0.347,-0.1145,-0.2475,-0.3385,-0.3315,-0.328,-0.3275,-0.297,-0.037,0.145,0.2215
-0.5415,-0.3855,0.1565,0.4635,-0.349,-0.1145,-0.2465,-0.338,-0.3335,-0.33,-0.3305,-0.3,-0.0385,0.1435,0.222
-0.54,-0.3885,0.152,0.4645,-0.346,-0.118,-0.2505,-0.3405,-0.336,-0.334,-0.333,-0.303,-0.0395,0.144,0.223
-0.536,-0.389,0.1475,0.463,-0.342,-0.121,-0.2505,-0.3425,-0.337,-0.3355,-0.336,-0.304,-0.04,0.139,0.2225
-0.5375,-0.3935,0.145,0.466,-0.341,-0.1245,-0.2475,-0.34,-0.335,-0.334,-0.334,-0.3035,-0.0405,0.1345,0.2235
-0.538,-0.3985,0.14,0.4685,-0.339,-0.1295,-0.25,-0.3415,-0.339,-0.338,-0.337,-0.306,-0.0415,0.133,0.226
-0.544,-0.4055,0.139,0.475,-0.3415,-0.1335,-0.2525,-0.345,-0.343,-0.342,-0.3425,-0.31,-0.043,0.13,0.228
-0.548,-0.4045,0.144,0.4765,-0.346,-0.1305,-0.253,-0.3465,-0.3455,-0.3455,-0.345,-0.313,-0.0445,0.135,0.2275
-0.549,-0.405,0.1445,0.477,-0.347,-0.1305,-0.2495,-0.344,-0.344,-0.3445,-0.3435,-0.3125,-0.046,0.133,0.227
-0.5505,-0.405,0.146,0.478,-0.348,-0.13,-0.2495,-0.3425,-0.343,-0.344,-0.342,-0.311,-0.0465,0.13,0.2295
-0.55,-0.4015,0.149,0.476,-0.3495,-0.1265,-0.249,-0.3415,-0.3415,-0.3435,-0.3385,-0.308,-0.0455,0.131,0.23
-0.551,-0.4045,0.147,0.478,-0.349,-0.129,-0.2425,-0.3385,-0.339,-0.341,-0.3375,-0.307,-0.0465,0.1305,0.2275
-0.5545,-0.4075,0.1475,0.4815,-0.351,-0.1305,-0.245,-0.3395,-0.341,-0.3435,-0.34,-0.3085,-0.0465,0.13,0.2275
-0.559,-0.408,0.1515,0.4835,-0.3555,-0.1285,-0.247,-0.341,-0.3425,-0.3435,-0.3405,-0.31,-0.0455,0.132,0.226
-0.557,-0.404,0.1535,0.481,-0.3555,-0.1255,-0.2505,-0.344,-0.3455,-0.345,-0.3445,-0.313,-0.048,0.133,0.2265
-0.557,-0.403,0.1545,0.48,-0.356,-0.1245,-0.254,-0.345,-0.3475,-0.3465,-0.347,-0.3145,-0.0495,0.1315,0.2265
-0.5575,-0.407,0.151,0.4825,-0.3545,-0.128,-0.2455,-0.341,-0.344,-0.343,-0.342,-0.3105,-0.0495,0.127,0.225
-0.557,-0.4105,0.1475,0.484,-0.3525,-0.1315,-0.237,-0.335,-0.337,-0.337,-0.3355,-0.3045,-0.0475,0.121,0.226
-0.5565,-0.4095,0.1475,0.483,-0.352,-0.131,-0.2435,-0.338,-0.34,-0.3395,-0.3385,-0.307,-0.047,0.126,0.226
-0.5555,-0.412,0.1435,0.484,-0.3495,-0.1345,-0.247,-0.3395,-0.344,-0.344,-0.342,-0.311,-0.048,0.127,0.226
-0.554,-0.4115,0.1425,0.483,-0.348,-0.135,-0.2455,-0.338,-0.344,-0.345,-0.343,-0.3125,-0.0475,0.13,0.2255
-0.549,-0.407,0.1425,0.4785,-0.3455,-0.1325,-0.25,-0.342,-0.346,-0.3465,-0.344,-0.313,-0.0475,0.133,0.2255
-0.551,-0.4085,0.1425,0.48,-0.347,-0.133,-0.247,-0.3425,-0.3445,-0.345,-0.343,-0.3125,-0.048,0.127,0.227
-0.554,-0.4095,0.145,0.482,-0.3495,-0.1325,-0.245,-0.3405,-0.343,-0.3435,-0.3405,-0.3095,-0.0475,0.1255,0.2275
-0.5585,-0.411,0.1475,0.485,-0.353,-0.132,-0.2435,-0.337,-0.3395,-0.341,-0.338,-0.306,-0.0465,0.125,0.227
-0.5555,-0.415,0.141,0.4855,-0.348,-0.1375,-0.2425,-0.34,-0.3425,-0.343,-0.343,-0.312,-0.0495,0.124,0.2265
-0.546,-0.4145,0.132,0.4805,-0.339,-0.1415,-0.2485,-0.3455,-0.348,-0.349,-0.349,-0.317,-0.0495,0.1225,0.227
-0.55,-0.413,0.1375,0.482,-0.3435,-0.138,-0.2525,-0.3495,-0.35,-0.353,-0.35,-0.3185,-0.049,0.125,0.2265
-0.559,-0.422,0.1375,0.491,-0.3485,-0.1425,-0.253,-0.349,-0.35,-0.352,-0.3505,-0.3185,-0.0495,0.125,0.226
-0.561,-0.423,0.138,0.4925,-0.3495,-0.143,-0.2495,-0.345,-0.347,-0.3495,-0.349,-0.3165,-0.0475,0.1225,0.226
-0.5575,-0.4185,0.1395,0.4885,-0.3485,-0.1395,-0.2485,-0.344,-0.3455,-0.349,-0.3475,-0.3145,-0.047,0.1245,0.226
-0.5555,-0.416,0.14,0.486,-0.3475,-0.138,-0.246,-0.3415,-0.3445,-0.3465,-0.346,-0.313,-0.046,0.1265,0.2265
-0.558,-0.414,0.1445,0.486,-0.3515,-0.135,-0.2435,-0.339,-0.3405,-0.344,-0.3435,-0.3115,-0.0465,0.126,0.225
-0.565,-0.4155,0.15,0.4905,-0.3575,-0.1325,-0.245,-0.338,-0.34,-0.344,-0.343,-0.313,-0.048,0.1245,0.2245
-0.5665,-0.4135,0.1535,0.49,-0.36,-0.13,-0.245,-0.3415,-0.342,-0.3465,-0.345,-0.3145,-0.048,0.126,0.2245
-0.561,-0.4125,0.149,0.487,-0.355,-0.132,-0.2455,-0.343,-0.344,-0.349,-0.348,-0.315,-0.048,0.126,0.226
-0.5575,-0.4145,0.1435,0.4865,-0.3505,-0.1355,-0.246,-0.3435,-0.345,-0.349,-0.3485,-0.3165,-0.05,0.1215,0.226
-0.557,-0.417,0.141,0.4875,-0.349,-0.1385,-0.2435,-0.3405,-0.342,-0.3455,-0.3455,-0.313,-0.0485,0.119,0.2255
-0.557,-0.415,0.1425,0.4865,-0.35,-0.1365,-0.246,-0.342,-0.343,-0.347,-0.347,-0.314,-0.048,0.1225,0.226
-0.5555,-0.414,0.142,0.485,-0.3485,-0.1365,-0.2505,-0.346,-0.3435,-0.348,-0.347,-0.316,-0.048,0.12,0.2255
-0.555,-0.414,0.1415,0.4845,-0.3485,-0.1365,-0.247,-0.344,-0.344,-0.3495,-0.3495,-0.316,-0.048,0.123,0.226
-0.558,-0.4135,0.1445,0.486,-0.3515,-0.135,-0.248,-0.345,-0.3445,-0.3495,-0.35,-0.318,-0.049,0.129,0.2255
-0.561,-0.416,0.146,0.489,-0.3535,-0.135,-0.249,-0.347,-0.3445,-0.3495,-0.35,-0.3185,-0.0495,0.126,0.225
-0.564,-0.4205,0.144,0.4925,-0.354,-0.1385,-0.245,-0.345,-0.345,-0.3505,-0.3505,-0.317,-0.0485,0.1235,0.227
-0.564,-0.4225,0.142,0.4935,-0.353,-0.1405,-0.2475,-0.3425,-0.343,-0.3495,-0.3485,-0.3155,-0.046,0.1205,0.2275
-0.5635,-0.423,0.141,0.4935,-0.352,-0.1415,-0.2485,-0.344,-0.3455,-0.352,-0.351,-0.318,-0.046,0.124,0.227
-0.562,-0.4285,0.134,0.4955,-0.348,-0.1475,-0.2485,-0.3445,-0.344,-0.3505,-0.35,-0.3175,-0.046,0.125,0.2275
-0.562,-0.428,0.1345,0.495,-0.348,-0.147,-0.2495,-0.3435,-0.3455,-0.3505,-0.35,-0.3165,-0.046,0.1205,0.227
-0.5665,-0.4315,0.1355,0.499,-0.351,-0.1485,-0.2475,-0.3425,-0.344,-0.3505,-0.35,-0.317,-0.047,0.1205,0.2255
-0.5645,-0.4305,0.135,0.4975,-0.35,-0.148,-0.2485,-0.345,-0.3435,-0.3505,-0.3495,-0.317,-0.046,0.122,0.226
-0.5515,-0.422,0.13,0.487,-0.341,-0.146,-0.2475,-0.345,-0.345,-0.349,-0.3485,-0.3155,-0.044,0.123,0.2265
-0.551,-0.4215,0.13,0.4865,-0.3405,-0.146,-0.2435,-0.342,-0.341,-0.3465,-0.3455,-0.313,-0.0435,0.1225,0.2265
-0.564,-0.4255,0.139,0.495,-0.3515,-0.1435,-0.2425,-0.3395,-0.34,-0.346,-0.346,-0.313,-0.0445,0.1195,0.226
-0.571,-0.428,0.1435,0.5,-0.357,-0.1425,-0.246,-0.343,-0.343,-0.349,-0.349,-0.3165,-0.0455,0.1245,0.225
-0.5745,-0.426,0.149,0.5005,-0.3615,-0.139,-0.25,-0.347,-0.345,-0.351,-0.351,-0.3195,-0.0445,0.128,0.2245
-0.5725,-0.4235,0.1495,0.4985,-0.361,-0.1375,-0.247,-0.3435,-0.3435,-0.3485,-0.349,-0.318,-0.0445,0.1255,0.2245
-0.575,-0.424,0.151,0.5,-0.363,-0.1365,-0.243,-0.341,-0.3405,-0.3465,-0.3475,-0.315,-0.0445,0.1255,0.224
-0.574,-0.4275,0.1465,0.501,-0.3605,-0.1405,-0.2455,-0.338,-0.338,-0.3435,-0.346,-0.314,-0.0445,0.122,0.2245
-0.5705,-0.426,0.145,0.4985,-0.358,-0.1405,-0.247,-0.339,-0.341,-0.3445,-0.3475,-0.3165,-0.045,0.124,0.225
-0.5695,-0.4245,0.1455,0.4975,-0.3575,-0.14,-0.247,-0.342,-0.3425,-0.347,-0.3485,-0.3165,-0.0445,0.1215,0.225
-0.564,-0.425,0.1395,0.495,-0.352,-0.143,-0.2475,-0.3415,-0.3425,-0.349,-0.3495,-0.318,-0.045,0.1235,0.2255
-0.563,-0.421,0.1425,0.4925,-0.353,-0.1395,-0.24,-0.3375,-0.3395,-0.3455,-0.348,-0.316,-0.044,0.128,0.224
-0.5615,-0.422,0.14,0.492,-0.351,-0.141,-0.2485,-0.341,-0.339,-0.3435,-0.3455,-0.3155,-0.043,0.1225,0.226
-0.5605,-0.4215,0.1395,0.4915,-0.35,-0.1415,-0.255,-0.343,-0.3385,-0.3415,-0.342,-0.313,-0.0405,0.1195,0.2285
-0.562,-0.4205,0.142,0.4915,-0.352,-0.1395,-0.249,-0.337,-0.3325,-0.336,-0.3375,-0.3085,-0.0365,0.1225,0.2255
-0.5535,-0.42,0.134,0.487,-0.3435,-0.1435,-0.254,-0.337,-0.3325,-0.3355,-0.3375,-0.3095,-0.0335,0.123,0.2245
-0.5475,-0.4155,0.132,0.4815,-0.3395,-0.142,-0.2565,-0.336,-0.3295,-0.3315,-0.3355,-0.31,-0.0305,0.126,0.2225
-0.55,-0.4135,0.137,0.482,-0.3435,-0.1385,-0.255,-0.33,-0.324,-0.3285,-0.3325,-0.3095,-0.028,0.1325,0.22
-0.548,-0.415,0.1335,0.4815,-0.3405,-0.141,-0.2485,-0.3205,-0.309,-0.317,-0.326,-0.3055,-0.024,0.1265,0.215
-0.549,-0.416,0.1335,0.483,-0.3415,-0.1415,-0.2405,-0.305,-0.289,-0.2995,-0.3165,-0.3005,-0.0175,0.122,0.208
-0.5475,-0.413,0.135,0.4805,-0.341,-0.1395,-0.233,-0.286,-0.266,-0.277,-0.299,-0.29,-0.0065,0.123,0.2
-0.538,-0.413,0.1255,0.4755,-0.332,-0.144,-0.228,-0.269,-0.244,-0.26,-0.2915,-0.2875,-0.0005,0.119,0.192
-0.527,-0.414,0.1135,0.4705,-0.32,-0.1505,-0.2315,-0.262,-0.232,-0.2475,-0.2845,-0.287,0.0095,0.1155,0.188
-0.524,-0.415,0.1095,0.4695,-0.3165,-0.153,-0.237,-0.263,-0.2255,-0.2375,-0.273,-0.284,0.0175,0.1135,0.188
-0.5245,-0.4195,0.105,0.4725,-0.3145,-0.1575,-0.247,-0.2705,-0.236,-0.246,-0.2815,-0.2905,0.016,0.1085,0.2015
-0.524,-0.4255,0.099,0.475,-0.3115,-0.1635,-0.2565,-0.276,-0.2445,-0.2475,-0.278,-0.2885,0.02,0.1025,0.214
-0.529,-0.4355,0.094,0.4825,-0.3115,-0.171,-0.261,-0.2805,-0.2515,-0.2485,-0.273,-0.288,0.0195,0.094,0.224
-0.519,-0.435,0.0845,0.477,-0.3015,-0.1755,-0.275,-0.295,-0.2605,-0.246,-0.2695,-0.2855,0.023,0.0925,0.2335
-0.513,-0.4245,0.089,0.469,-0.301,-0.168,-0.2865,-0.2995,-0.254,-0.2305,-0.2555,-0.2775,0.0325,0.0975,0.232
-0.505,-0.4155,0.0905,0.4605,-0.298,-0.1625,-0.2925,-0.2935,-0.2385,-0.208,-0.238,-0.27,0.0425,0.102,0.2255
-0.484,-0.4015,0.083,0.443,-0.2835,-0.1595,-0.3075,-0.2995,-0.23,-0.1905,-0.2235,-0.262,0.0545,0.1135,0.2205
-0.4645,-0.381,0.084,0.423,-0.274,-0.149,-0.322,-0.301,-0.2175,-0.1665,-0.202,-0.248,0.072,0.1325,0.215
-0.45,-0.3665,0.084,0.4085,-0.267,-0.141,-0.3385,-0.302,-0.2065,-0.139,-0.1685,-0.2255,0.096,0.1415,0.218
-0.442,-0.3595,0.0835,0.401,-0.263,-0.1385,-0.362,-0.3175,-0.2175,-0.1305,-0.145,-0.2095,0.1155,0.1465,0.235
-0.4295,-0.3515,0.0785,0.391,-0.254,-0.1365,-0.388,-0.334,-0.2305,-0.1225,-0.121,-0.1925,0.135,0.152,0.2505
-0.4105,-0.348,0.063,0.3795,-0.237,-0.143,-0.4075,-0.3335,-0.2275,-0.1045,-0.085,-0.1685,0.16,0.148,0.2645
-0.3845,-0.333,0.052,0.359,-0.2185,-0.1405,-0.4285,-0.327,-0.2135,-0.072,-0.0385,-0.14,0.193,0.152,0.2725
-0.3535,-0.3135,0.0405,0.334,-0.197,-0.137,-0.467,-0.344,-0.2245,-0.0595,0.0,-0.116,0.2285,0.163,0.2945
-0.315,-0.301,0.014,0.308,-0.1645,-0.144,-0.5075,-0.359,-0.2345,-0.0435,0.043,-0.087,0.269,0.17,0.321
-0.2725,-0.2685,0.005,0.271,-0.1385,-0.132,-0.5505,-0.369,-0.225,-0.001,0.1,-0.0485,0.315,0.1855,0.327
-0.2325,-0.2085,0.025,0.2205,-0.1285,-0.092,-0.597,-0.3785,-0.2,0.0685,0.1765,0.006,0.374,0.2265,0.3215
-0.1955,-0.1425,0.054,0.169,-0.125,-0.0445,-0.6375,-0.3735,-0.153,0.16,0.2755,0.0765,0.4455,0.277,0.3075
-0.151,-0.084,0.0675,0.118,-0.109,-0.0085,-0.69,-0.3835,-0.126,0.2295,0.3665,0.1415,0.514,0.3185,0.3045
-0.1005,-0.021,0.08,0.061,-0.0905,0.0295,-0.741,-0.391,-0.0925,0.3065,0.457,0.202,0.5805,0.3605,0.293
-0.0505,0.042,0.093,0.0045,-0.0715,0.0675,-0.79,-0.3975,-0.06,0.3795,0.541,0.2565,0.6405,0.4055,0.2795
0.004,0.103,0.0995,-0.053,-0.048,0.101,-0.8445,-0.414,-0.0395,0.445,0.6285,0.32,0.7105,0.4515,0.276
0.0445,0.1575,0.1135,-0.1005,-0.0345,0.135,-0.896,-0.4365,-0.032,0.4955,0.711,0.3845,0.774,0.4915,0.2805
0.077,0.214,0.137,-0.1455,-0.03,0.1755,-0.9445,-0.468,-0.0365,0.5375,0.781,0.447,0.8295,0.5375,0.286
0.114,0.284,0.1705,-0.199,-0.028,0.227,-0.9965,-0.503,-0.0375,0.5875,0.8605,0.515,0.893,0.5965,0.288
0.1485,0.3445,0.196,-0.246,-0.0235,0.27,-1.054,-0.546,-0.0575,0.614,0.925,0.5725,0.945,0.646,0.298
0.173,0.393,0.2205,-0.283,-0.0235,0.3065,-1.103,-0.5905,-0.089,0.623,0.964,0.6145,0.9805,0.681,0.31
0.1925,0.4275,0.2355,-0.3095,-0.0215,0.3315,-1.1495,-0.6395,-0.1335,0.61,0.993,0.65,1.0125,0.7125,0.34
0.2075,0.4485,0.2415,-0.3275,-0.017,0.345,-1.179,-0.6735,-0.166,0.602,1.016,0.6835,1.039,0.7335,0.3635
0.2135,0.456,0.2425,-0.3345,-0.0145,0.349,-1.2065,-0.711,-0.211,0.5715,1.013,0.6995,1.049,0.737,0.394
0.2095,0.4615,0.2525,-0.3355,-0.0215,0.357,-1.2405,-0.7655,-0.275,0.524,0.9985,0.708,1.051,0.7545,0.427
0.188,0.468,0.2805,-0.3275,-0.0465,0.374,-1.248,-0.8085,-0.333,0.4695,0.96,0.7025,1.033,0.772,0.441
0.1595,0.453,0.2945,-0.306,-0.0675,0.3735,-1.24,-0.8465,-0.399,0.381,0.885,0.672,0.9925,0.7635,0.4635
0.125,0.443,0.3185,-0.2835,-0.097,0.3805,-1.2395,-0.896,-0.484,0.273,0.8005,0.644,0.953,0.762,0.4895
0.09,0.411,0.3215,-0.2505,-0.116,0.366,-1.235,-0.942,-0.58,0.1495,0.7145,0.615,0.9125,0.7435,0.5315
0.0635,0.3655,0.3025,-0.2145,-0.1195,0.334,-1.224,-0.973,-0.6585,0.0375,0.6445,0.587,0.8805,0.713,0.5735
0.027,0.3185,0.292,-0.1725,-0.1325,0.305,-1.2125,-1.0145,-0.7555,-0.095,0.559,0.554,0.84,0.678,0.6205
-0.016,0.261,0.2775,-0.1225,-0.147,0.269,-1.1935,-1.062,-0.8745,-0.258,0.437,0.499,0.7725,0.637,0.678
-0.0575,0.217,0.275,-0.0795,-0.1665,0.2455,-1.1865,-1.1165,-0.997,-0.4195,0.3225,0.454,0.7155,0.6115,0.738
-0.0915,0.173,0.265,-0.0405,-0.178,0.2185,-1.178,-1.1525,-1.0885,-0.55,0.234,0.417,0.6725,0.5805,0.7855
-0.118,0.1365,0.255,-0.009,-0.1865,0.1955,-1.155,-1.157,-1.137,-0.645,0.1645,0.382,0.6315,0.555,0.8105
-0.1345,0.1025,0.2375,0.016,-0.186,0.1695,-1.125,-1.1365,-1.145,-0.7,0.1225,0.3615,0.609,0.5295,0.824
-0.141,0.0895,0.2305,0.026,-0.1855,0.16,-1.084,-1.09,-1.0955,-0.6825,0.12,0.357,0.603,0.52,0.7985
-0.159,0.078,0.2375,0.041,-0.1985,0.1575,-1.0335,-1.0395,-1.028,-0.6415,0.122,0.3505,0.588,0.5175,0.7535
-0.1645,0.0515,0.217,0.0565,-0.1905,0.134,-0.986,-0.9905,-0.97,-0.6195,0.1055,0.326,0.567,0.5035,0.7165
-0.168,0.018,0.187,0.0755,-0.1775,0.102,-0.945,-0.9475,-0.9295,-0.619,0.076,0.296,0.5415,0.4825,0.691
-0.19,-0.012,0.1785,0.1015,-0.184,0.083,-0.8955,-0.9025,-0.888,-0.6145,0.055,0.2715,0.5135,0.4625,0.665
-0.2055,-0.034,0.172,0.12,-0.189,0.069,-0.848,-0.8545,-0.841,-0.5975,0.045,0.2515,0.4925,0.4495,0.6315
-0.219,-0.0735,0.146,0.1465,-0.1825,0.036,-0.8,-0.8055,-0.795,-0.5815,0.031,0.23,0.4735,0.416,0.606
-0.226,-0.0985,0.128,0.1625,-0.177,0.0145,-0.764,-0.765,-0.754,-0.561,0.0295,0.221,0.467,0.398,0.58
-0.2315,-0.1075,0.1245,0.17,-0.178,0.008,-0.7405,-0.7405,-0.7255,-0.5465,0.025,0.2175,0.4605,0.3955,0.558
-0.244,-0.1075,0.137,0.176,-0.1905,0.0145,-0.7145,-0.7265,-0.707,-0.5365,0.0115,0.2075,0.446,0.3955,0.5375
-0.2635,-0.099,0.165,0.1815,-0.214,0.0325,-0.691,-0.7085,-0.6855,-0.5205,0.0015,0.1975,0.4315,0.4005,0.5135
-0.2815,-0.098,0.184,0.19,-0.2325,0.0425,-0.6685,-0.685,-0.664,-0.5075,-0.0055,0.1895,0.4195,0.3975,0.495
-0.292,-0.1095,0.1825,0.201,-0.237,0.036,-0.652,-0.6715,-0.65,-0.5035,-0.016,0.1805,0.409,0.3925,0.484
-0.304,-0.1255,0.179,0.215,-0.2415,0.0265,-0.6325,-0.657,-0.637,-0.4995,-0.034,0.1635,0.391,0.3815,0.472
-0.31,-0.145,0.1655,0.2275,-0.2375,0.01,-0.619,-0.6485,-0.6315,-0.502,-0.055,0.1415,0.371,0.37,0.4645
-0.3275,-0.1675,0.1605,0.2475,-0.2435,-0.004,-0.602,-0.6405,-0.624,-0.5045,-0.082,0.113,0.3455,0.3595,0.454
-0.356,-0.177,0.179,0.267,-0.2675,0.0005,-0.5745,-0.62,-0.604,-0.4915,-0.1025,0.086,0.316,0.3465,0.4355
-0.37,-0.1765,0.1935,0.2735,-0.282,0.0085,-0.551,-0.6,-0.5805,-0.472,-0.111,0.071,0.299,0.3495,0.416
-0.386,-0.1805,0.206,0.2835,-0.296,0.0125,-0.5285,-0.5845,-0.5645,-0.4655,-0.13,0.0455,0.273,0.3515,0.4
-0.41,-0.188,0.2225,0.299,-0.316,0.017,-0.518,-0.578,-0.5545,-0.4625,-0.156,0.014,0.2415,0.346,0.388
-0.4325,-0.195,0.2385,0.314,-0.3355,0.0215,-0.497,-0.5595,-0.5335,-0.4445,-0.172,-0.0085,0.217,0.3465,0.367
-0.4615,-0.2105,0.2515,0.3365,-0.3565,0.02,-0.463,-0.5345,-0.5055,-0.4245,-0.195,-0.045,0.18,0.3405,0.3385
-0.4875,-0.219,0.269,0.3535,-0.3785,0.0245,-0.4455,-0.5235,-0.4905,-0.4145,-0.2165,-0.0745,0.1505,0.3385,0.318
-0.5025,-0.219,0.284,0.361,-0.393,0.032,-0.4325,-0.5095,-0.4775,-0.4045,-0.224,-0.0865,0.1365,0.3415,0.304
-0.515,-0.215,0.3005,0.365,-0.4075,0.0425,-0.4195,-0.502,-0.463,-0.394,-0.2325,-0.0995,0.122,0.346,0.2895
-0.528,-0.204,0.3245,0.3665,-0.426,0.06,-0.413,-0.5015,-0.457,-0.3875,-0.2445,-0.1135,0.1055,0.354,0.2745
-0.543,-0.2015,0.342,0.3725,-0.4425,0.07,-0.396,-0.49,-0.4425,-0.376,-0.258,-0.1355,0.082,0.358,0.2535
-0.5515,-0.198,0.354,0.375,-0.453,0.0775,-0.3805,-0.478,-0.427,-0.365,-0.2695,-0.153,0.064,0.362,0.2325
-0.544,-0.191,0.3535,0.368,-0.449,0.081,-0.3835,-0.4815,-0.432,-0.3715,-0.281,-0.1615,0.0565,0.372,0.229
-0.544,-0.1875,0.357,0.366,-0.4505,0.0845,-0.388,-0.488,-0.44,-0.38,-0.291,-0.169,0.049,0.38,0.2315
-0.5565,-0.169,0.3875,0.363,-0.472,0.109,-0.3835,-0.4885,-0.437,-0.3755,-0.2955,-0.1715,0.041,0.393,0.222
-0.5665,-0.1565,0.41,0.3615,-0.4885,0.127,-0.3815,-0.4875,-0.4305,-0.371,-0.299,-0.177,0.0325,0.4025,0.212
-0.5725,-0.164,0.4085,0.3685,-0.4905,0.122,-0.374,-0.4815,-0.428,-0.3715,-0.3065,-0.1865,0.0245,0.3965,0.209
-0.572,-0.18,0.392,0.376,-0.482,0.106,-0.3645,-0.474,-0.426,-0.3755,-0.3145,-0.2,0.0165,0.379,0.2085
-0.575,-0.199,0.376,0.3875,-0.4755,0.0885,-0.3545,-0.46,-0.416,-0.3725,-0.321,-0.2165,0.005,0.3645,0.206
-0.5815,-0.2115,0.37,0.3965,-0.476,0.0795,-0.34,-0.446,-0.4035,-0.3665,-0.3215,-0.2225,-0.002,0.354,0.2045
-0.5835,-0.2255,0.3585,0.4045,-0.471,0.0665,-0.3355,-0.441,-0.402,-0.3725,-0.328,-0.2315,-0.009,0.3345,0.209
-0.5855,-0.244,0.3425,0.415,-0.464,0.049,-0.333,-0.437,-0.406,-0.3815,-0.34,-0.247,-0.0165,0.32,0.218
-0.5845,-0.262,0.323,0.4235,-0.4535,0.03,-0.3265,-0.429,-0.4035,-0.384,-0.348,-0.2605,-0.023,0.3025,0.2185
-0.5835,-0.275,0.309,0.4295,-0.446,0.0165,-0.3145,-0.4195,-0.397,-0.3815,-0.3535,-0.2725,-0.032,0.291,0.21
-0.59,-0.295,0.295,0.4425,-0.4425,0.0,-0.302,-0.4065,-0.3865,-0.376,-0.3525,-0.275,-0.036,0.281,0.209
-0.5925,-0.314,0.279,0.4535,-0.436,-0.0175,-0.2955,-0.3985,-0.3825,-0.376,-0.3525,-0.2755,-0.037,0.2635,0.216
-0.588,-0.323,0.2655,0.4555,-0.4265,-0.029,-0.2935,-0.3955,-0.381,-0.3765,-0.355,-0.2825,-0.0365,0.252,0.217
-0.5905,-0.331,0.26,0.461,-0.4255,-0.036,-0.29,-0.3905,-0.378,-0.3755,-0.358,-0.2885,-0.0375,0.237,0.2155
-0.592,-0.328,0.2645,0.46,-0.428,-0.032,-0.29,-0.39,-0.38,-0.379,-0.3625,-0.293,-0.041,0.2375,0.2165
-0.5825,-0.327,0.256,0.455,-0.419,-0.036,-0.292,-0.3925,-0.38,-0.382,-0.3675,-0.3,-0.044,0.2425,0.218
-0.5895,-0.3345,0.256,0.4625,-0.423,-0.0395,-0.2855,-0.3865,-0.3755,-0.3805,-0.3695,-0.3055,-0.0485,0.2345,0.222
-0.6025,-0.359,0.244,0.481,-0.4235,-0.0575,-0.2795,-0.376,-0.3695,-0.379,-0.371,-0.312,-0.05,0.2135,0.225
-0.5955,-0.382,0.214,0.489,-0.405,-0.084,-0.2755,-0.3685,-0.366,-0.38,-0.3735,-0.32,-0.051,0.197,0.2275
-0.5775,-0.3875,0.19,0.483,-0.3835,-0.099,-0.2625,-0.354,-0.3535,-0.3705,-0.371,-0.3245,-0.0505,0.1845,0.2225
-0.5765,-0.405,0.1725,0.491,-0.3745,-0.1165,-0.2545,-0.343,-0.34,-0.3615,-0.3695,-0.3305,-0.0485,0.168,0.213
-0.5865,-0.425,0.162,0.506,-0.3745,-0.1315,-0.2435,-0.329,-0.3265,-0.3525,-0.3645,-0.3345,-0.048,0.1535,0.2035
-0.58,-0.4375,0.1435,0.509,-0.362,-0.147,-0.224,-0.305,-0.303,-0.332,-0.351,-0.3295,-0.0445,0.135,0.193
-0.582,-0.443,0.1395,0.5125,-0.3605,-0.152,-0.215,-0.2985,-0.296,-0.324,-0.346,-0.3275,-0.044,0.123,0.1895
-0.5835,-0.4445,0.14,0.5145,-0.362,-0.1525,-0.211,-0.2935,-0.2895,-0.3195,-0.3455,-0.328,-0.0425,0.123,0.1865
-0.589,-0.4485,0.141,0.519,-0.365,-0.154,-0.208,-0.2875,-0.2825,-0.313,-0.3405,-0.325,-0.0415,0.123,0.1825
-0.594,-0.4465,0.1485,0.5205,-0.3715,-0.1495,-0.204,-0.2845,-0.281,-0.311,-0.34,-0.325,-0.0435,0.117,0.181
-0.5805,-0.4395,0.141,0.51,-0.361,-0.1495,-0.206,-0.2845,-0.2815,-0.312,-0.3425,-0.3275,-0.044,0.119,0.179
-0.578,-0.4385,0.1395,0.5085,-0.3585,-0.15,-0.209,-0.2875,-0.284,-0.3155,-0.3445,-0.3295,-0.0445,0.1195,0.18
-0.5855,-0.4375,0.1485,0.5115,-0.367,-0.1445,-0.2055,-0.2855,-0.2815,-0.3125,-0.3435,-0.329,-0.0435,0.1245,0.179
-0.5925,-0.44,0.1525,0.517,-0.3725,-0.144,-0.2025,-0.282,-0.2805,-0.3095,-0.341,-0.327,-0.045,0.1255,0.178
-0.5985,-0.4445,0.1545,0.522,-0.3765,-0.145,-0.198,-0.2775,-0.2745,-0.304,-0.3375,-0.323,-0.0445,0.116,0.1795
-0.5945,-0.4415,0.1535,0.518,-0.374,-0.144,-0.201,-0.281,-0.277,-0.3065,-0.339,-0.3255,-0.0435,0.1195,0.1785
-0.5835,-0.4425,0.1415,0.5135,-0.3625,-0.151,-0.208,-0.286,-0.281,-0.3105,-0.343,-0.3295,-0.0435,0.1155,0.1795
-0.579,-0.443,0.136,0.511,-0.3575,-0.154,-0.206,-0.2855,-0.2795,-0.309,-0.345,-0.3315,-0.043,0.118,0.1775
-0.5875,-0.443,0.1445,0.5155,-0.366,-0.1495,-0.2015,-0.28,-0.2775,-0.3075,-0.3425,-0.3295,-0.0445,0.122,0.1765
-0.591,-0.4425,0.149,0.517,-0.37,-0.147,-0.1995,-0.2775,-0.2735,-0.304,-0.3385,-0.3265,-0.0435,0.119,0.1775
-0.5895,-0.4445,0.1455,0.517,-0.3675,-0.1495,-0.1975,-0.2755,-0.2705,-0.3015,-0.337,-0.3255,-0.0415,0.121,0.1765
-0.59,-0.4485,0.142,0.5195,-0.3655,-0.1535,-0.1975,-0.2735,-0.269,-0.302,-0.336,-0.3255,-0.042,0.1175,0.1745
-0.576,-0.4495,0.127,0.513,-0.3515,-0.1615,-0.203,-0.2785,-0.272,-0.3055,-0.341,-0.3295,-0.0415,0.1175,0.1745
-0.5745,-0.4485,0.1265,0.5115,-0.3505,-0.161,-0.2065,-0.281,-0.2735,-0.307,-0.343,-0.3315,-0.0415,0.117,0.174
-0.584,-0.445,0.139,0.5145,-0.3615,-0.153,-0.202,-0.2805,-0.273,-0.306,-0.3415,-0.3315,-0.0425,0.1175,0.173
-0.5835,-0.449,0.135,0.5165,-0.359,-0.1575,-0.199,-0.278,-0.2685,-0.302,-0.3395,-0.329,-0.0425,0.1145,0.1715
-0.578,-0.45,0.1285,0.514,-0.353,-0.161,-0.203,-0.2775,-0.269,-0.3025,-0.34,-0.3295,-0.041,0.1155,0.1715
-0.5705,-0.4465,0.1245,0.509,-0.3475,-0.161,-0.201,-0.274,-0.267,-0.3015,-0.339,-0.3285,-0.0405,0.118,0.171
-0.5705,-0.443,0.1275,0.507,-0.349,-0.158,-0.1965,-0.2695,-0.262,-0.296,-0.3345,-0.324,-0.04,0.1185,0.169
-0.571,-0.444,0.128,0.508,-0.3495,-0.1585,-0.198,-0.271,-0.263,-0.2965,-0.3365,-0.3255,-0.0405,0.1175,0.168
-0.5705,-0.444,0.127,0.5075,-0.349,-0.1585,-0.199,-0.2735,-0.2645,-0.298,-0.339,-0.3285,-0.0425,0.1155,0.1665
-0.5675,-0.4385,0.13,0.503,-0.349,-0.1545,-0.1995,-0.2745,-0.2655,-0.299,-0.3395,-0.33,-0.0425,0.116,0.167
-0.5635,-0.435,0.129,0.4995,-0.3465,-0.1535,-0.2,-0.2735,-0.264,-0.299,-0.3385,-0.3295,-0.042,0.114,0.1665
-0.5685,-0.4395,0.1295,0.5045,-0.349,-0.1555,-0.1975,-0.2705,-0.2605,-0.297,-0.3375,-0.3285,-0.0425,0.1135,0.1655
-0.575,-0.4445,0.131,0.51,-0.353,-0.157,-0.192,-0.266,-0.2565,-0.2915,-0.3345,-0.3245,-0.0425,0.1095,0.167
-0.5755,-0.442,0.134,0.509,-0.355,-0.154,-0.193,-0.2675,-0.2545,-0.288,-0.331,-0.3225,-0.0405,0.111,0.1645
-0.578,-0.443,0.1355,0.511,-0.3565,-0.154,-0.1915,-0.263,-0.253,-0.2875,-0.331,-0.323,-0.041,0.11,0.164
-0.5755,-0.4435,0.1325,0.5095,-0.354,-0.1555,-0.192,-0.262,-0.255,-0.29,-0.335,-0.327,-0.044,0.112,0.163
-0.5715,-0.4425,0.13,0.507,-0.351,-0.1565,-0.1925,-0.2635,-0.253,-0.2905,-0.3355,-0.3285,-0.043,0.116,0.162
-0.5715,-0.4395,0.1325,0.506,-0.352,-0.154,-0.1915,-0.2625,-0.2515,-0.289,-0.3335,-0.3265,-0.042,0.1125,0.162
-0.5695,-0.4365,0.1335,0.5035,-0.3515,-0.152,-0.1925,-0.2625,-0.251,-0.289,-0.334,-0.326,-0.0415,0.112,0.161
-0.565,-0.4385,0.127,0.502,-0.346,-0.156,-0.191,-0.259,-0.248,-0.2865,-0.3335,-0.325,-0.0395,0.1135,0.161
-0.562,-0.4435,0.1195,0.503,-0.341,-0.162,-0.19,-0.2585,-0.247,-0.286,-0.331,-0.3255,-0.0395,0.112,0.1595
-0.568,-0.4415,0.127,0.505,-0.3475,-0.1575,-0.1885,-0.257,-0.2435,-0.284,-0.3295,-0.324,-0.0395,0.1125,0.158
-0.5675,-0.4375,0.1305,0.503,-0.349,-0.154,-0.191,-0.2595,-0.244,-0.285,-0.331,-0.3255,-0.039,0.115,0.1575
-0.565,-0.4385,0.1265,0.502,-0.3455,-0.1565,-0.19,-0.2575,-0.243,-0.283,-0.329,-0.325,-0.038,0.1135,0.158
-0.566,-0.434,0.1325,0.5,-0.349,-0.151,-0.1895,-0.2565,-0.2415,-0.2815,-0.3295,-0.3235,-0.0385,0.1125,0.16
-0.563,-0.439,0.1245,0.5015,-0.344,-0.1575,-0.1855,-0.255,-0.2395,-0.2805,-0.329,-0.322,-0.039,0.1125,0.159
-0.5605,-0.4415,0.119,0.5015,-0.34,-0.1615,-0.181,-0.2485,-0.2355,-0.276,-0.326,-0.321,-0.0395,0.1115,0.1555
-0.56,-0.4385,0.122,0.4995,-0.341,-0.1585,-0.1855,-0.2495,-0.234,-0.2755,-0.3265,-0.323,-0.039,0.111,0.1545
-0.559,-0.435,0.1245,0.497,-0.3415,-0.1555,-0.187,-0.2505,-0.2345,-0.2745,-0.3265,-0.323,-0.038,0.1125,0.1525
-0.56,-0.4295,0.131,0.495,-0.3455,-0.1495,-0.1885,-0.251,-0.235,-0.2745,-0.328,-0.325,-0.039,0.1105,0.1535
-0.562,-0.43,0.133,0.496,-0.348,-0.1485,-0.188,-0.249,-0.234,-0.2735,-0.327,-0.325,-0.0395,0.1115,0.1525
-0.5625,-0.429,0.134,0.496,-0.348,-0.148,-0.1855,-0.2455,-0.231,-0.2705,-0.3255,-0.324,-0.04,0.1145,0.15
-0.562,-0.433,0.129,0.4975,-0.3455,-0.1525,-0.1805,-0.2415,-0.2275,-0.268,-0.323,-0.322,-0.0385,0.1105,0.1515
-0.5585,-0.43,0.129,0.4945,-0.344,-0.1505,-0.183,-0.2445,-0.2285,-0.2705,-0.3245,-0.324,-0.038,0.111,0.15
-0.56,-0.4295,0.131,0.495,-0.3455,-0.1495,-0.183,-0.2455,-0.227,-0.27,-0.326,-0.326,-0.0395,0.1105,0.1495
-0.559,-0.4335,0.126,0.4965,-0.3425,-0.154,-0.1785,-0.2395,-0.222,-0.2645,-0.3235,-0.324,-0.0395,0.111,0.1485
-0.5585,-0.4325,0.1265,0.4955,-0.3425,-0.153,-0.1825,-0.239,-0.222,-0.2635,-0.322,-0.322,-0.038,0.112,0.148
-0.5615,-0.431,0.131,0.4965,-0.3465,-0.1505,-0.18,-0.2365,-0.2195,-0.262,-0.3205,-0.3195,-0.0375,0.1125,0.1485
-0.551,-0.429,0.122,0.49,-0.3365,-0.1535,-0.1805,-0.2365,-0.218,-0.263,-0.321,-0.3215,-0.037,0.115,0.148
-0.5385,-0.43,0.109,0.485,-0.324,-0.1605,-0.1815,-0.238,-0.2185,-0.2635,-0.323,-0.324,-0.0365,0.113,0.146
-0.541,-0.43,0.1115,0.4855,-0.326,-0.1595,-0.1805,-0.236,-0.217,-0.2615,-0.3235,-0.3225,-0.036,0.1115,0.1455
-0.548,-0.429,0.1195,0.489,-0.334,-0.155,-0.1825,-0.236,-0.216,-0.261,-0.323,-0.321,-0.0355,0.113,0.145
-0.557,-0.4285,0.129,0.493,-0.3425,-0.15,-0.18,-0.2345,-0.213,-0.259,-0.3215,-0.321,-0.0355,0.114,0.143
-0.558,-0.4315,0.127,0.495,-0.3425,-0.1525,-0.1775,-0.231,-0.21,-0.256,-0.3205,-0.32,-0.0355,0.112,0.1435
-0.5455,-0.4275,0.1185,0.4865,-0.332,-0.1545,-0.1765,-0.232,-0.211,-0.255,-0.3205,-0.3215,-0.0355,0.1105,0.143
-0.5295,-0.4235,0.1065,0.4765,-0.318,-0.1585,-0.174,-0.233,-0.2095,-0.255,-0.322,-0.322,-0.035,0.1105,0.1415
-0.525,-0.424,0.101,0.475,-0.313,-0.162,-0.18,-0.2345,-0.21,-0.256,-0.324,-0.322,-0.035,0.1105,0.1415
-0.5405,-0.4255,0.116,0.4835,-0.328,-0.155,-0.1785,-0.23,-0.2055,-0.251,-0.3195,-0.32,-0.0335,0.1165,0.1395
-0.5595,-0.429,0.1305,0.4945,-0.345,-0.1495,-0.171,-0.2235,-0.1995,-0.2455,-0.3165,-0.316,-0.033,0.121,0.137
-0.563,-0.426,0.138,0.495,-0.3505,-0.144,-0.172,-0.2245,-0.199,-0.2455,-0.3165,-0.317,-0.0345,0.1135,0.1375
-0.553,-0.421,0.133,0.4875,-0.343,-0.1445,-0.1725,-0.223,-0.196,-0.242,-0.3135,-0.317,-0.0335,0.11,0.137
-0.537,-0.423,0.1145,0.48,-0.3255,-0.1545,-0.1725,-0.2235,-0.198,-0.2445,-0.318,-0.32,-0.0335,0.1155,0.135
-0.535,-0.4285,0.1075,0.482,-0.321,-0.1605,-0.1705,-0.2245,-0.1985,-0.247,-0.322,-0.3225,-0.0345,0.1145,0.133
-0.5405,-0.43,0.111,0.4855,-0.3255,-0.1595,-0.173,-0.226,-0.198,-0.246,-0.3205,-0.324,-0.033,0.115,0.1315
-0.5445,-0.4335,0.1115,0.489,-0.328,-0.161,-0.172,-0.225,-0.198,-0.2465,-0.322,-0.3255,-0.034,0.1175,0.13
-0.5485,-0.4345,0.115,0.4915,-0.3315,-0.16,-0.1695,-0.222,-0.195,-0.2455,-0.3225,-0.326,-0.034,0.119,0.129
-0.5465,-0.432,0.115,0.4895,-0.3305,-0.1585,-0.172,-0.223,-0.1925,-0.2445,-0.3195,-0.327,-0.0325,0.1215,0.1285
-0.541,-0.431,0.111,0.486,-0.326,-0.16,-0.1755,-0.222,-0.1925,-0.2435,-0.3185,-0.326,-0.031,0.12,0.129
-0.5365,-0.432,0.1045,0.4845,-0.3205,-0.164,-0.176,-0.222,-0.1915,-0.242,-0.319,-0.3255,-0.03,0.1195,0.1295
-0.5345,-0.4315,0.1035,0.4835,-0.319,-0.1645,-0.17,-0.217,-0.1865,-0.2385,-0.3165,-0.3245,-0.0305,0.1215,0.126
-0.535,-0.4275,0.1085,0.4815,-0.3215,-0.1595,-0.1685,-0.213,-0.1845,-0.2365,-0.3145,-0.3235,-0.0305,0.121,0.1245
-0.5425,-0.427,0.116,0.485,-0.329,-0.1555,-0.1695,-0.213,-0.181,-0.235,-0.3125,-0.3235,-0.0295,0.122,0.1235
-0.5465,-0.4245,0.1225,0.486,-0.3345,-0.151,-0.169,-0.2115,-0.1785,-0.234,-0.312,-0.3245,-0.03,0.1225,0.122
-0.545,-0.426,0.1195,0.486,-0.332,-0.1535,-0.169,-0.2095,-0.177,-0.2325,-0.3125,-0.3235,-0.0305,0.1205,0.1225
-0.5435,-0.4245,0.1195,0.484,-0.3315,-0.1525,-0.1675,-0.2085,-0.173,-0.2305,-0.3105,-0.3215,-0.03,0.122,0.121
-0.541,-0.4215,0.12,0.4815,-0.3305,-0.151,-0.1645,-0.2055,-0.1695,-0.227,-0.3075,-0.32,-0.028,0.1265,0.1195
-0.5405,-0.422,0.119,0.4815,-0.3295,-0.152,-0.1625,-0.2015,-0.1655,-0.2245,-0.305,-0.319,-0.029,0.128,0.1165
-0.5365,-0.419,0.1175,0.478,-0.327,-0.151,-0.161,-0.201,-0.164,-0.223,-0.3045,-0.3195,-0.0295,0.125,0.1125
-0.5335,-0.4165,0.117,0.4755,-0.325,-0.15,-0.1615,-0.1975,-0.162,-0.22,-0.3025,-0.3195,-0.0285,0.127,0.1115
-0.5385,-0.4135,0.1255,0.4765,-0.332,-0.1445,-0.1605,-0.1945,-0.1575,-0.2185,-0.302,-0.3205,-0.03,0.1275,0.1105
-0.539,-0.41,0.1295,0.475,-0.3345,-0.1405,-0.1535,-0.191,-0.1535,-0.213,-0.298,-0.318,-0.0295,0.125,0.1085
-0.534,-0.41,0.1245,0.472,-0.329,-0.143,-0.1525,-0.189,-0.152,-0.213,-0.297,-0.3175,-0.0285,0.126,0.1075
-0.5315,-0.4135,0.119,0.4725,-0.3255,-0.1475,-0.1535,-0.188,-0.149,-0.2125,-0.2975,-0.318,-0.028,0.1255,0.1055
-0.528,-0.411,0.118,0.4695,-0.323,-0.147,-0.154,-0.189,-0.1485,-0.2105,-0.297,-0.3175,-0.028,0.125,0.1045
-0.525,-0.4075,0.118,0.4665,-0.3215,-0.145,-0.1515,-0.187,-0.145,-0.209,-0.2955,-0.3175,-0.029,0.124,0.103
-0.527,-0.408,0.12,0.468,-0.3235,-0.144,-0.1475,-0.182,-0.1395,-0.2055,-0.2935,-0.3165,-0.028,0.127,0.1015
-0.5275,-0.409,0.119,0.4685,-0.3235,-0.145,-0.1525,-0.185,-0.14,-0.2065,-0.2955,-0.3195,-0.0275,0.1285,0.1005
-0.5255,-0.4055,0.12,0.4655,-0.3225,-0.143,-0.1475,-0.181,-0.134,-0.202,-0.2915,-0.3165,-0.025,0.1255,0.099
-0.525,-0.405,0.12,0.465,-0.3225,-0.1425,-0.1425,-0.176,-0.1275,-0.198,-0.2885,-0.314,-0.0245,0.127,0.0975
-0.5225,-0.408,0.1155,0.4655,-0.3185,-0.1465,-0.141,-0.174,-0.1245,-0.196,-0.2885,-0.3145,-0.0245,0.128,0.0955
-0.5185,-0.404,0.1155,0.4615,-0.317,-0.1445,-0.139,-0.1685,-0.119,-0.1915,-0.2855,-0.311,-0.022,0.124,0.0935
-0.52,-0.403,0.1175,0.462,-0.319,-0.143,-0.1395,-0.1685,-0.1185,-0.1915,-0.287,-0.314,-0.0225,0.1285,0.092
-0.523,-0.402,0.1215,0.463,-0.322,-0.1405,-0.1355,-0.167,-0.117,-0.19,-0.286,-0.3155,-0.022,0.136,0.0885
-0.522,-0.403,0.12,0.463,-0.321,-0.142,-0.138,-0.1655,-0.1115,-0.1875,-0.284,-0.313,-0.021,0.1295,0.087
-0.5205,-0.402,0.119,0.4615,-0.32,-0.1415,-0.136,-0.161,-0.108,-0.184,-0.283,-0.3115,-0.02,0.127,0.086
-0.5195,-0.401,0.1195,0.4605,-0.3195,-0.141,-0.131,-0.154,-0.102,-0.1795,-0.28,-0.309,-0.018,0.129,0.0845
-0.518,-0.3995,0.119,0.459,-0.3185,-0.1405,-0.1275,-0.15,-0.095,-0.1735,-0.2765,-0.3065,-0.017,0.1225,0.081
-0.514,-0.396,0.119,0.455,-0.3165,-0.139,-0.125,-0.146,-0.0915,-0.171,-0.2765,-0.3065,-0.0165,0.123,0.0775
-0.5135,-0.3945,0.1195,0.454,-0.3165,-0.1375,-0.1285,-0.146,-0.09,-0.171,-0.277,-0.308,-0.015,0.1265,0.076
-0.517,-0.3915,0.126,0.4545,-0.3215,-0.133,-0.1295,-0.145,-0.0875,-0.1685,-0.2775,-0.308,-0.015,0.1305,0.074
-0.5165,-0.393,0.124,0.455,-0.3205,-0.1345,-0.129,-0.1425,-0.0845,-0.1665,-0.2785,-0.309,-0.0165,0.1305,0.0715
-0.515,-0.3965,0.119,0.456,-0.317,-0.139,-0.124,-0.138,-0.079,-0.164,-0.2765,-0.307,-0.015,0.126,0.069
-0.5115,-0.3945,0.1175,0.453,-0.3145,-0.139,-0.122,-0.1355,-0.0745,-0.16,-0.275,-0.3065,-0.014,0.1275,0.066
-0.5135,-0.389,0.125,0.4515,-0.3195,-0.132,-0.1225,-0.1335,-0.071,-0.1555,-0.273,-0.304,-0.0135,0.1295,0.0645
-0.517,-0.3875,0.13,0.4525,-0.3235,-0.1285,-0.118,-0.1285,-0.064,-0.1505,-0.2695,-0.3025,-0.0135,0.132,0.0615
-0.513,-0.3865,0.1265,0.45,-0.32,-0.13,-0.1175,-0.1255,-0.0575,-0.147,-0.268,-0.304,-0.011,0.136,0.0575
-0.5115,-0.3875,0.1245,0.4495,-0.3175,-0.132,-0.115,-0.122,-0.056,-0.1475,-0.272,-0.305,-0.012,0.1365,0.0565
-0.511,-0.3875,0.1245,0.4495,-0.318,-0.1315,-0.113,-0.119,-0.0525,-0.1445,-0.27,-0.304,-0.012,0.1365,0.054
-0.5105,-0.389,0.1225,0.45,-0.3165,-0.1335,-0.114,-0.1145,-0.0465,-0.139,-0.2645,-0.3015,-0.0095,0.134,0.0515
-0.5075,-0.391,0.117,0.4495,-0.312,-0.1375,-0.111,-0.112,-0.043,-0.138,-0.2675,-0.3035,-0.0105,0.133,0.0485
-0.5015,-0.387,0.115,0.4445,-0.308,-0.1365,-0.1085,-0.109,-0.037,-0.135,-0.266,-0.3045,-0.01,0.14,0.0435
-0.502,-0.3865,0.116,0.4445,-0.309,-0.1355,-0.1075,-0.1065,-0.035,-0.134,-0.267,-0.3045,-0.008,0.1425,0.0425
-0.5085,-0.3875,0.1215,0.4485,-0.315,-0.1335,-0.1055,-0.1025,-0.03,-0.131,-0.268,-0.304,-0.0075,0.1385,0.04
-0.5035,-0.3855,0.1185,0.445,-0.311,-0.1335,-0.104,-0.098,-0.0225,-0.124,-0.2625,-0.2995,-0.007,0.1395,0.039
-0.493,-0.3775,0.116,0.4355,-0.3045,-0.131,-0.1,-0.093,-0.0185,-0.119,-0.2585,-0.297,-0.0055,0.1435,0.0375
-0.496,-0.3775,0.1195,0.437,-0.308,-0.129,-0.093,-0.0815,-0.007,-0.113,-0.253,-0.2945,-0.0035,0.143,0.0315
-0.5,-0.3815,0.119,0.441,-0.3095,-0.1315,-0.0915,-0.08,-0.0025,-0.1105,-0.253,-0.2945,-0.0035,0.1415,0.0285
-0.4955,-0.3815,0.1145,0.4385,-0.305,-0.134,-0.093,-0.0795,-0.0005,-0.108,-0.2535,-0.296,-0.0025,0.14,0.026
-0.496,-0.3785,0.118,0.4375,-0.307,-0.1305,-0.0925,-0.0745,0.006,-0.1035,-0.251,-0.2945,-0.002,0.1385,0.024
-0.495,-0.374,0.1215,0.435,-0.308,-0.1265,-0.092,-0.0715,0.0105,-0.0985,-0.25,-0.2945,-0.001,0.14,0.021
-0.4975,-0.3725,0.1255,0.435,-0.3115,-0.124,-0.088,-0.066,0.0175,-0.094,-0.247,-0.293,-0.0005,0.142,0.0175
-0.503,-0.372,0.1315,0.4375,-0.3175,-0.1205,-0.083,-0.06,0.024,-0.0905,-0.245,-0.292,-0.0005,0.1425,0.0145
-0.4905,-0.371,0.1205,0.431,-0.3055,-0.1255,-0.079,-0.052,0.031,-0.0845,-0.24,-0.289,0.0015,0.138,0.0105
-0.477,-0.3715,0.106,0.4245,-0.2915,-0.133,-0.0775,-0.05,0.0355,-0.0815,-0.24,-0.2895,0.0025,0.133,0.0065
-0.4665,-0.3665,0.1005,0.417,-0.2835,-0.133,-0.077,-0.0465,0.04,-0.0785,-0.2375,-0.29,0.004,0.1345,0.0035
-0.4655,-0.358,0.108,0.412,-0.287,-0.125,-0.073,-0.0385,0.05,-0.0715,-0.232,-0.2865,0.0045,0.139,0.0005
-0.4715,-0.361,0.111,0.4165,-0.2915,-0.125,-0.0705,-0.0335,0.056,-0.0685,-0.233,-0.2875,0.0055,0.14,-0.003
-0.468,-0.3615,0.107,0.4145,-0.2875,-0.1275,-0.0725,-0.032,0.059,-0.068,-0.2345,-0.2905,0.0065,0.138,-0.006
-0.472,-0.3645,0.1075,0.4185,-0.29,-0.129,-0.071,-0.0275,0.066,-0.063,-0.2315,-0.288,0.008,0.135,-0.008
-0.471,-0.3635,0.108,0.4175,-0.2895,-0.128,-0.067,-0.0195,0.074,-0.0565,-0.2265,-0.2845,0.0115,0.1415,-0.013
-0.459,-0.358,0.1015,0.4085,-0.2805,-0.1285,-0.069,-0.019,0.0755,-0.0565,-0.2275,-0.287,0.0125,0.1475,-0.016
-0.463,-0.356,0.1075,0.4095,-0.2855,-0.1245,-0.0695,-0.0135,0.0825,-0.0515,-0.2245,-0.2865,0.014,0.1445,-0.017
-0.4585,-0.35,0.109,0.4045,-0.2835,-0.1205,-0.0645,-0.0045,0.0915,-0.0445,-0.22,-0.285,0.015,0.1485,-0.0225
-0.45,-0.357,0.0935,0.4035,-0.272,-0.132,-0.0635,-0.001,0.098,-0.0405,-0.217,-0.2835,0.0165,0.146,-0.0245
-0.451,-0.3585,0.093,0.405,-0.272,-0.133,-0.06,0.005,0.1055,-0.0355,-0.213,-0.281,0.018,0.143,-0.028
-0.446,-0.353,0.094,0.4,-0.27,-0.1295,-0.055,0.009,0.1085,-0.0325,-0.2135,-0.2825,0.0185,0.151,-0.0325
-0.4405,-0.3505,0.0905,0.396,-0.2655,-0.1305,-0.0575,0.014,0.1155,-0.029,-0.2115,-0.2835,0.0205,0.149,-0.0355
-0.44,-0.3565,0.084,0.3985,-0.262,-0.1365,-0.054,0.018,0.1225,-0.0235,-0.207,-0.2805,0.021,0.1435,-0.04
-0.438,-0.36,0.0785,0.399,-0.258,-0.141,-0.0515,0.0235,0.128,-0.0185,-0.2035,-0.2775,0.022,0.14,-0.0425
-0.434,-0.3535,0.081,0.394,-0.258,-0.1365,-0.049,0.029,0.1355,-0.0155,-0.201,-0.278,0.0235,0.1385,-0.044
-0.4335,-0.3505,0.0835,0.3925,-0.2585,-0.134,-0.0475,0.031,0.14,-0.011,-0.1995,-0.2765,0.025,0.139,-0.0465
-0.432,-0.3515,0.0815,0.392,-0.2565,-0.1355,-0.0435,0.0415,0.149,-0.0035,-0.194,-0.2725,0.027,0.1385,-0.0485
-0.437,-0.351,0.0865,0.394,-0.2615,-0.1325,-0.038,0.05,0.1595,0.0035,-0.187,-0.2685,0.03,0.1395,-0.051
-0.4365,-0.347,0.09,0.392,-0.263,-0.1285,-0.038,0.0535,0.1645,0.0065,-0.1845,-0.268,0.0325,0.1425,-0.0545
-0.433,-0.3475,0.0855,0.3905,-0.2595,-0.131,-0.0315,0.0615,0.1715,0.011,-0.1805,-0.2675,0.0335,0.14,-0.0585
-0.428,-0.3475,0.081,0.388,-0.2545,-0.1335,-0.031,0.066,0.1775,0.014,-0.179,-0.268,0.035,0.136,-0.0615
-0.4235,-0.348,0.0755,0.386,-0.2495,-0.1365,-0.0345,0.067,0.1795,0.0135,-0.1805,-0.268,0.0365,0.1345,-0.061
-0.423,-0.3475,0.076,0.3855,-0.2495,-0.136,-0.0325,0.071,0.1845,0.018,-0.177,-0.2665,0.039,0.1365,-0.062
-0.417,-0.347,0.0705,0.3825,-0.2435,-0.1385,-0.0315,0.0765,0.1935,0.021,-0.173,-0.2655,0.0415,0.1365,-0.0645
-0.414,-0.35,0.0645,0.382,-0.239,-0.143,-0.0315,0.08,0.197,0.021,-0.171,-0.2665,0.0435,0.133,-0.0675
-0.416,-0.3525,0.064,0.3845,-0.24,-0.1445,-0.0295,0.085,0.2035,0.026,-0.1655,-0.265,0.047,0.135,-0.0705
-0.4225,-0.3555,0.0675,0.389,-0.245,-0.1445,-0.027,0.091,0.21,0.0295,-0.162,-0.262,0.0485,0.138,-0.0725
-0.424,-0.356,0.068,0.39,-0.246,-0.144,-0.028,0.096,0.2125,0.032,-0.16,-0.261,0.049,0.136,-0.0735
-0.4115,-0.3575,0.0545,0.3845,-0.233,-0.1515,-0.028,0.0995,0.217,0.035,-0.1575,-0.26,0.0525,0.133,-0.0755
-0.391,-0.3545,0.037,0.373,-0.214,-0.159,-0.0335,0.096,0.215,0.031,-0.161,-0.2655,0.055,0.132,-0.0765
-0.3845,-0.3525,0.0325,0.369,-0.2085,-0.16,-0.0345,0.097,0.218,0.0315,-0.1585,-0.2655,0.0575,0.129,-0.075
-0.393,-0.357,0.036,0.375,-0.2145,-0.1605,-0.0265,0.106,0.227,0.0395,-0.1505,-0.259,0.06,0.127,-0.078
-0.3995,-0.3665,0.0335,0.3835,-0.2165,-0.167,-0.0235,0.112,0.23,0.043,-0.149,-0.257,0.0605,0.123,-0.0785
-0.399,-0.3655,0.034,0.3825,-0.2165,-0.166,-0.0245,0.115,0.232,0.044,-0.1465,-0.2575,0.061,0.123,-0.079
-0.391,-0.357,0.0345,0.374,-0.2125,-0.1615,-0.0235,0.117,0.235,0.045,-0.143,-0.257,0.0625,0.124,-0.079
-0.388,-0.355,0.033,0.3715,-0.2105,-0.161,-0.022,0.116,0.2365,0.046,-0.1415,-0.256,0.065,0.122,-0.079
-0.385,-0.36,0.025,0.373,-0.205,-0.168,-0.023,0.1195,0.239,0.048,-0.139,-0.254,0.0675,0.117,-0.0785
-0.382,-0.362,0.0205,0.3725,-0.2015,-0.171,-0.026,0.1215,0.2395,0.047,-0.137,-0.2525,0.069,0.1165,-0.0765
-0.39,-0.36,0.0305,0.3755,-0.2105,-0.165,-0.0235,0.122,0.241,0.047,-0.1335,-0.25,0.07,0.122,-0.077
-0.39,-0.365,0.026,0.3775,-0.208,-0.17,-0.027,0.124,0.241,0.0465,-0.132,-0.248,0.0725,0.12,-0.0755
-0.3835,-0.3675,0.0165,0.3755,-0.2,-0.1755,-0.034,0.119,0.236,0.0415,-0.134,-0.2515,0.0735,0.12,-0.0735
-0.38,-0.3695,0.011,0.375,-0.1955,-0.1795,-0.034,0.117,0.2335,0.037,-0.1345,-0.2535,0.074,0.1175,-0.0705
-0.3775,-0.373,0.005,0.3755,-0.191,-0.1845,-0.0355,0.117,0.23,0.035,-0.1335,-0.2525,0.075,0.1135,-0.0675
-0.377,-0.3775,0.0,0.3775,-0.1885,-0.1885,-0.0355,0.1175,0.23,0.0335,-0.13,-0.2495,0.0775,0.112,-0.064
-0.376,-0.3815,-0.0055,0.379,-0.185,-0.194,-0.0355,0.116,0.2275,0.033,-0.1265,-0.2465,0.08,0.1075,-0.062
-0.3725,-0.382,-0.009,0.3775,-0.182,-0.1955,-0.041,0.1135,0.2225,0.029,-0.126,-0.247,0.0805,0.1075,-0.058
-0.3705,-0.3795,-0.009,0.375,-0.181,-0.1945,-0.048,0.1085,0.2165,0.024,-0.1265,-0.247,0.0835,0.1095,-0.053
-0.371,-0.3805,-0.009,0.376,-0.181,-0.195,-0.0485,0.1035,0.212,0.02,-0.1275,-0.2475,0.084,0.108,-0.0505
-0.3695,-0.3845,-0.014,0.377,-0.1775,-0.1995,-0.0505,0.1035,0.2065,0.015,-0.1275,-0.246,0.0835,0.1005,-0.0455
-0.3665,-0.385,-0.018,0.376,-0.174,-0.2015,-0.0565,0.1015,0.1975,0.011,-0.1265,-0.2445,0.085,0.102,-0.041
-0.3635,-0.3865,-0.022,0.3755,-0.171,-0.2045,-0.053,0.098,0.193,0.0065,-0.126,-0.242,0.087,0.103,-0.0345
-0.365,-0.3895,-0.024,0.3775,-0.1705,-0.207,-0.0555,0.091,0.1855,0.0025,-0.128,-0.2415,0.086,0.098,-0.0305
-0.3665,-0.3925,-0.0255,0.3795,-0.1705,-0.209,-0.065,0.0825,0.175,-0.0055,-0.1295,-0.2435,0.0855,0.096,-0.0255
-0.366,-0.3935,-0.027,0.38,-0.1695,-0.2105,-0.068,0.0775,0.1655,-0.013,-0.1305,-0.2435,0.087,0.095,-0.0205
-0.3685,-0.393,-0.024,0.381,-0.172,-0.209,-0.076,0.07,0.156,-0.0185,-0.1315,-0.243,0.0875,0.099,-0.014
-0.3715,-0.3965,-0.025,0.3845,-0.173,-0.211,-0.084,0.0615,0.144,-0.0275,-0.135,-0.242,0.0875,0.0955,-0.006
-0.3765,-0.4035,-0.0265,0.3905,-0.175,-0.2155,-0.082,0.056,0.136,-0.0335,-0.139,-0.241,0.0865,0.09,0.0015
-0.3825,-0.4055,-0.022,0.394,-0.18,-0.214,-0.083,0.0505,0.13,-0.0375,-0.1375,-0.238,0.087,0.086,0.0075
-0.378,-0.4035,-0.025,0.391,-0.1765,-0.2145,-0.0935,0.0375,0.113,-0.0505,-0.1425,-0.2415,0.0865,0.0855,0.0125
-0.3735,-0.409,-0.035,0.3915,-0.1695,-0.222,-0.1015,0.0265,0.1,-0.0605,-0.1485,-0.2445,0.085,0.0865,0.021
-0.373,-0.4115,-0.038,0.3925,-0.1675,-0.225,-0.108,0.0185,0.088,-0.069,-0.15,-0.244,0.086,0.087,0.026
-0.3665,-0.411,-0.044,0.389,-0.161,-0.228,-0.116,0.007,0.071,-0.0805,-0.1555,-0.2475,0.085,0.0925,0.034
-0.367,-0.413,-0.0455,0.39,-0.1605,-0.2295,-0.1215,-0.0035,0.061,-0.088,-0.16,-0.2475,0.0845,0.092,0.041
-0.3745,-0.4145,-0.0395,0.3945,-0.1675,-0.2275,-0.122,-0.0115,0.053,-0.0945,-0.1615,-0.245,0.0835,0.0865,0.046
-0.374,-0.415,-0.041,0.395,-0.1665,-0.2285,-0.126,-0.022,0.04,-0.102,-0.165,-0.245,0.0825,0.086,0.0535
-0.366,-0.4075,-0.041,0.387,-0.1625,-0.2245,-0.133,-0.0305,0.0305,-0.107,-0.165,-0.243,0.082,0.091,0.059
-0.367,-0.3995,-0.032,0.3835,-0.1675,-0.216,-0.1355,-0.0375,0.02,-0.112,-0.167,-0.2415,0.0795,0.092,0.0625
-0.3785,-0.4005,-0.0215,0.39,-0.1785,-0.2115,-0.14,-0.0465,0.0075,-0.1205,-0.1735,-0.242,0.078,0.0905,0.069
-0.3855,-0.407,-0.0205,0.3965,-0.1825,-0.214,-0.145,-0.0565,-0.004,-0.1275,-0.1775,-0.2425,0.075,0.087,0.075
-0.3935,-0.4125,-0.0185,0.4035,-0.1875,-0.216,-0.151,-0.07,-0.019,-0.1355,-0.1835,-0.245,0.075,0.0875,0.0785
-0.397,-0.4125,-0.015,0.405,-0.191,-0.214,-0.1515,-0.0765,-0.027,-0.1395,-0.1855,-0.243,0.0755,0.096,0.0845
-0.393,-0.4035,-0.01,0.3985,-0.191,-0.207,-0.153,-0.0815,-0.035,-0.1415,-0.1845,-0.2395,0.0735,0.098,0.089
-0.3945,-0.399,-0.004,0.397,-0.195,-0.202,-0.1595,-0.093,-0.0485,-0.1485,-0.1885,-0.2395,0.071,0.096,0.093
-0.4015,-0.403,-0.0005,0.4025,-0.2005,-0.202,-0.166,-0.105,-0.0585,-0.156,-0.193,-0.2425,0.069,0.0985,0.0975
-0.409,-0.406,0.004,0.4075,-0.2065,-0.201,-0.173,-0.1185,-0.0735,-0.1665,-0.202,-0.2475,0.067,0.0975,0.102
-0.4085,-0.405,0.004,0.407,-0.206,-0.2005,-0.1805,-0.1305,-0.0875,-0.1725,-0.2075,-0.2495,0.065,0.099,0.1065
-0.408,-0.4045,0.004,0.4065,-0.206,-0.2005,-0.1805,-0.1355,-0.094,-0.174,-0.2085,-0.246,0.064,0.101,0.11
-0.4145,-0.405,0.0105,0.41,-0.2125,-0.1975,-0.1815,-0.1415,-0.1015,-0.1765,-0.2115,-0.2455,0.061,0.096,0.1155
-0.421,-0.3985,0.023,0.41,-0.222,-0.188,-0.1865,-0.152,-0.1115,-0.181,-0.2135,-0.2465,0.0585,0.1015,0.118
-0.422,-0.3905,0.0315,0.4065,-0.227,-0.18,-0.1875,-0.1575,-0.1185,-0.183,-0.2135,-0.245,0.056,0.1035,0.121
-0.4265,-0.388,0.0385,0.4075,-0.2325,-0.175,-0.1915,-0.1645,-0.126,-0.185,-0.2155,-0.244,0.055,0.103,0.1255
-0.431,-0.3875,0.0445,0.4095,-0.2375,-0.172,-0.1955,-0.176,-0.1365,-0.1915,-0.223,-0.246,0.0535,0.115,0.1295
-0.427,-0.387,0.041,0.407,-0.234,-0.1735,-0.202,-0.1855,-0.1475,-0.197,-0.2275,-0.248,0.0525,0.118,0.1325
-0.426,-0.3875,0.0395,0.407,-0.2325,-0.1745,-0.208,-0.1935,-0.1565,-0.2005,-0.23,-0.248,0.0525,0.118,0.135
-0.429,-0.3865,0.043,0.408,-0.236,-0.172,-0.21,-0.2005,-0.165,-0.2035,-0.2325,-0.2495,0.0505,0.12,0.137
-0.4335,-0.385,0.049,0.4095,-0.2415,-0.168,-0.212,-0.207,-0.17,-0.206,-0.233,-0.248,0.0495,0.12,0.1395
-0.44,-0.3755,0.065,0.408,-0.252,-0.1555,-0.2155,-0.216,-0.1785,-0.2095,-0.2365,-0.248,0.048,0.1285,0.1415
-0.4455,-0.3745,0.0715,0.41,-0.2585,-0.152,-0.2185,-0.2215,-0.1845,-0.212,-0.239,-0.248,0.046,0.1255,0.1435
-0.4515,-0.3835,0.068,0.418,-0.26,-0.158,-0.216,-0.2225,-0.1875,-0.2105,-0.2365,-0.2435,0.0435,0.12,0.146
-0.448,-0.381,0.0675,0.415,-0.258,-0.157,-0.2225,-0.2315,-0.1975,-0.215,-0.2405,-0.245,0.044,0.127,0.1495
-0.4405,-0.3795,0.062,0.41,-0.251,-0.159,-0.229,-0.2405,-0.2055,-0.221,-0.2455,-0.2475,0.0435,0.131,0.1525
-0.442,-0.3785,0.064,0.4105,-0.253,-0.1575,-0.2285,-0.2475,-0.2125,-0.2245,-0.25,-0.2505,0.04,0.13,0.154
-0.4485,-0.377,0.072,0.413,-0.26,-0.1525,-0.23,-0.254,-0.2175,-0.227,-0.2525,-0.252,0.037,0.128,0.156
-0.4595,-0.3725,0.0875,0.416,-0.2735,-0.143,-0.23,-0.255,-0.2215,-0.2265,-0.2505,-0.249,0.036,0.1355,0.156
-0.4645,-0.368,0.097,0.4165,-0.2805,-0.136,-0.231,-0.2565,-0.2265,-0.228,-0.2535,-0.249,0.034,0.141,0.159
-0.468,-0.365,0.1035,0.417,-0.286,-0.131,-0.2315,-0.2605,-0.229,-0.23,-0.255,-0.2495,0.032,0.1385,0.161
-0.4765,-0.366,0.1115,0.4215,-0.294,-0.1275,-0.2285,-0.2625,-0.2315,-0.2305,-0.2555,-0.2475,0.03,0.141,0.1615
-0.478,-0.365,0.1135,0.4215,-0.2955,-0.126,-0.231,-0.266,-0.2355,-0.2325,-0.2575,-0.247,0.0285,0.1465,0.1635
-0.48,-0.3615,0.119,0.421,-0.2995,-0.1215,-0.2355,-0.273,-0.2425,-0.237,-0.262,-0.25,0.027,0.1465,0.165
-0.4735,-0.361,0.1135,0.4175,-0.2935,-0.124,-0.2375,-0.2765,-0.248,-0.2425,-0.266,-0.2535,0.024,0.1445,0.1665
-0.471,-0.3625,0.109,0.417,-0.29,-0.127,-0.241,-0.2815,-0.2535,-0.247,-0.2695,-0.2575,0.023,0.145,0.168
-0.477,-0.36,0.1175,0.4185,-0.297,-0.1215,-0.2415,-0.285,-0.2565,-0.2485,-0.2715,-0.2565,0.0215,0.1465,0.17
-0.482,-0.356,0.1265,0.4195,-0.3045,-0.115,-0.2375,-0.283,-0.255,-0.2465,-0.268,-0.253,0.0205,0.151,0.17
-0.4865,-0.3635,0.1235,0.4255,-0.305,-0.12,-0.243,-0.288,-0.2595,-0.2505,-0.272,-0.255,0.019,0.147,0.173
-0.4775,-0.3685,0.1095,0.423,-0.2935,-0.1295,-0.251,-0.2975,-0.2685,-0.2585,-0.279,-0.259,0.019,0.1415,0.176
-0.473,-0.3685,0.105,0.421,-0.289,-0.132,-0.253,-0.3035,-0.2745,-0.261,-0.282,-0.2615,0.0185,0.1415,0.177
-0.475,-0.366,0.11,0.4205,-0.2925,-0.128,-0.2545,-0.3075,-0.2775,-0.2635,-0.2845,-0.2625,0.0175,0.1475,0.177
-0.479,-0.367,0.1125,0.423,-0.2955,-0.1275,-0.2555,-0.3105,-0.2805,-0.266,-0.288,-0.265,0.0165,0.148,0.1765
-0.486,-0.3675,0.1185,0.427,-0.3025,-0.1245,-0.2515,-0.3065,-0.2775,-0.262,-0.286,-0.261,0.015,0.144,0.177
-0.4835,-0.3615,0.122,0.423,-0.303,-0.12,-0.2475,-0.3035,-0.2775,-0.26,-0.284,-0.2575,0.0145,0.1425,0.1785
-0.4845,-0.367,0.118,0.426,-0.3015,-0.1245,-0.2525,-0.3075,-0.281,-0.264,-0.2875,-0.261,0.014,0.1405,0.1815
-0.486,-0.369,0.1175,0.428,-0.302,-0.126,-0.257,-0.3105,-0.283,-0.267,-0.2895,-0.263,0.0125,0.142,0.182
-0.489,-0.372,0.118,0.431,-0.3035,-0.1275,-0.254,-0.312,-0.2885,-0.2695,-0.292,-0.266,0.01,0.146,0.181
-0.492,-0.3695,0.123,0.431,-0.3075,-0.1235,-0.254,-0.3145,-0.288,-0.271,-0.293,-0.2655,0.009,0.149,0.1815
-0.4905,-0.3625,0.128,0.4265,-0.3095,-0.1175,-0.255,-0.315,-0.2885,-0.2705,-0.293,-0.266,0.0075,0.144,0.183
-0.496,-0.367,0.13,0.4315,-0.313,-0.1185,-0.2525,-0.3135,-0.2905,-0.271,-0.2935,-0.2655,0.007,0.1425,0.1825
-0.4945,-0.369,0.126,0.432,-0.31,-0.122,-0.252,-0.3125,-0.2895,-0.269,-0.292,-0.2645,0.0055,0.1435,0.1835
-0.4935,-0.371,0.123,0.4325,-0.3085,-0.1245,-0.2535,-0.3145,-0.292,-0.271,-0.2925,-0.265,0.0055,0.143,0.1855
-0.508,-0.37,0.1385,0.4395,-0.3235,-0.116,-0.2525,-0.314,-0.292,-0.271,-0.2915,-0.2635,0.005,0.1445,0.185
-0.513,-0.3665,0.147,0.44,-0.33,-0.11,-0.2495,-0.3135,-0.2905,-0.269,-0.2905,-0.263,0.002,0.145,0.184
-0.5065,-0.3675,0.1395,0.437,-0.323,-0.1145,-0.2515,-0.3165,-0.2945,-0.273,-0.2935,-0.2655,0.003,0.1465,0.186
-0.5005,-0.3695,0.132,0.4355,-0.3165,-0.119,-0.2555,-0.3195,-0.299,-0.277,-0.2975,-0.2685,0.0005,0.145,0.187
-0.495,-0.3695,0.126,0.4325,-0.3105,-0.122,-0.2565,-0.322,-0.301,-0.279,-0.298,-0.271,-0.0005,0.1435,0.187
-0.5025,-0.3705,0.133,0.437,-0.3175,-0.119,-0.253,-0.319,-0.297,-0.2755,-0.2945,-0.2675,0.0025,0.144,0.189
-0.508,-0.3735,0.135,0.441,-0.3215,-0.1195,-0.252,-0.3185,-0.297,-0.274,-0.293,-0.2665,0.0015,0.1425,0.189
-0.5015,-0.374,0.128,0.4385,-0.315,-0.123,-0.255,-0.3205,-0.3,-0.278,-0.298,-0.27,0.0005,0.1405,0.1905
-0.5075,-0.372,0.136,0.4395,-0.3215,-0.118,-0.255,-0.322,-0.3005,-0.2795,-0.3005,-0.2705,-0.001,0.1465,0.1905
-0.508,-0.3705,0.138,0.4395,-0.323,-0.1165,-0.2565,-0.322,-0.301,-0.2795,-0.2995,-0.2705,-0.0015,0.148,0.1885
-0.508,-0.3755,0.1325,0.442,-0.3205,-0.1215,-0.255,-0.321,-0.302,-0.279,-0.2995,-0.269,-0.001,0.1425,0.19
-0.509,-0.377,0.1325,0.443,-0.3205,-0.1225,-0.2545,-0.323,-0.303,-0.279,-0.2995,-0.269,-0.001,0.14,0.19
-0.507,-0.376,0.1315,0.442,-0.319,-0.1225,-0.254,-0.3235,-0.301,-0.279,-0.2985,-0.27,-0.0005,0.139,0.1905
-0.5055,-0.3795,0.1265,0.4425,-0.316,-0.1265,-0.2545,-0.3245,-0.3025,-0.279,-0.3005,-0.2715,-0.0015,0.143,0.1905
-0.504,-0.379,0.1255,0.442,-0.315,-0.127,-0.2565,-0.325,-0.3045,-0.28,-0.302,-0.2715,-0.002,0.1415,0.1895
-0.507,-0.377,0.1305,0.442,-0.319,-0.1235,-0.2575,-0.3265,-0.306,-0.282,-0.3025,-0.272,-0.002,0.138,0.1895
-0.5055,-0.374,0.1325,0.44,-0.319,-0.121,-0.259,-0.3285,-0.308,-0.283,-0.3055,-0.2755,-0.003,0.1415,0.191
-0.502,-0.373,0.13,0.438,-0.316,-0.122,-0.2575,-0.3285,-0.308,-0.284,-0.3045,-0.2755,-0.0035,0.1405,0.191
-0.505,-0.3785,0.127,0.442,-0.316,-0.126,-0.2595,-0.3265,-0.3065,-0.282,-0.3015,-0.2735,-0.0025,0.136,0.1915
-0.511,-0.3825,0.129,0.447,-0.32,-0.127,-0.251,-0.324,-0.305,-0.2805,-0.3015,-0.2725,-0.003,0.1355,0.1915
-0.516,-0.3815,0.135,0.449,-0.3255,-0.1235,-0.2475,-0.3245,-0.304,-0.2795,-0.3,-0.2735,-0.004,0.138,0.191
-0.5215,-0.3815,0.141,0.452,-0.3315,-0.1205,-0.255,-0.3215,-0.3015,-0.2775,-0.2985,-0.2715,-0.004,0.1405,0.1905
-0.5215,-0.385,0.1375,0.4535,-0.3295,-0.124,-0.2535,-0.323,-0.302,-0.2785,-0.2985,-0.2715,-0.004,0.135,0.1905
-0.5145,-0.3815,0.1335,0.4485,-0.324,-0.1245,-0.251,-0.324,-0.303,-0.278,-0.298,-0.272,-0.004,0.134,0.191
-0.5095,-0.37,0.14,0.44,-0.325,-0.115,-0.2505,-0.322,-0.3015,-0.2785,-0.298,-0.2715,-0.0035,0.1465,0.191
-0.513,-0.371,0.142,0.4425,-0.3275,-0.115,-0.2475,-0.32,-0.299,-0.276,-0.2955,-0.2695,-0.0035,0.1415,0.1925
-0.515,-0.381,0.1345,0.448,-0.3245,-0.1235,-0.2435,-0.3175,-0.296,-0.2725,-0.293,-0.2665,-0.0045,0.1325,0.1905
-0.514,-0.385,0.129,0.4495,-0.3215,-0.128,-0.2495,-0.3215,-0.2985,-0.275,-0.2945,-0.269,-0.0045,0.1355,0.19
-0.5075,-0.384,0.124,0.446,-0.316,-0.1305,-0.2585,-0.3295,-0.3075,-0.283,-0.304,-0.278,-0.0055,0.139,0.191
-0.501,-0.3815,0.12,0.4415,-0.3105,-0.131,-0.259,-0.3325,-0.31,-0.2865,-0.308,-0.282,-0.0075,0.1405,0.1905
-0.506,-0.3815,0.125,0.444,-0.3155,-0.1285,-0.254,-0.329,-0.306,-0.282,-0.304,-0.2775,-0.007,0.1355,0.1915
-0.5105,-0.382,0.129,0.4465,-0.32,-0.1265,-0.252,-0.3265,-0.304,-0.2795,-0.302,-0.2745,-0.006,0.1355,0.192
-0.5165,-0.3845,0.132,0.4505,-0.324,-0.1265,-0.2515,-0.3255,-0.3025,-0.279,-0.3,-0.2755,-0.0065,0.1375,0.1915
-0.517,-0.38,0.1375,0.4485,-0.327,-0.1215,-0.25,-0.3255,-0.303,-0.278,-0.3005,-0.2755,-0.007,0.1385,0.1905
-0.512,-0.379,0.1335,0.4455,-0.3225,-0.123,-0.246,-0.323,-0.3005,-0.2745,-0.2975,-0.273,-0.007,0.1365,0.1895
-0.512,-0.381,0.1315,0.447,-0.3215,-0.125,-0.248,-0.319,-0.2965,-0.2705,-0.294,-0.271,-0.006,0.1335,0.19
-0.5145,-0.3795,0.136,0.4475,-0.3255,-0.122,-0.25,-0.324,-0.2995,-0.274,-0.2995,-0.2735,-0.008,0.135,0.1915
-0.517,-0.3795,0.1375,0.4485,-0.3275,-0.121,-0.2515,-0.325,-0.3005,-0.2765,-0.301,-0.276,-0.01,0.1335,0.1915
-0.5135,-0.3825,0.1315,0.4485,-0.3225,-0.126,-0.252,-0.3215,-0.2995,-0.2745,-0.3015,-0.276,-0.0095,0.1325,0.1915
-0.505,-0.382,0.1235,0.444,-0.3145,-0.1295,-0.2475,-0.326,-0.3035,-0.277,-0.304,-0.2775,-0.009,0.132,0.1925
-0.503,-0.3735,0.13,0.4385,-0.3165,-0.122,-0.247,-0.3245,-0.3005,-0.275,-0.3005,-0.2765,-0.008,0.1355,0.1915
-0.506,-0.3715,0.135,0.439,-0.3205,-0.1185,-0.2475,-0.3205,-0.2975,-0.273,-0.3005,-0.276,-0.0085,0.141,0.1895
-0.509,-0.375,0.1345,0.442,-0.3215,-0.1205,-0.2525,-0.327,-0.303,-0.2775,-0.3045,-0.28,-0.009,0.1385,0.19
-0.51,-0.381,0.13,0.4455,-0.32,-0.1255,-0.2525,-0.326,-0.3025,-0.277,-0.3045,-0.2805,-0.009,0.135,0.19
-0.5095,-0.379,0.131,0.4445,-0.32,-0.124,-0.2485,-0.323,-0.3,-0.275,-0.303,-0.2805,-0.011,0.136,0.1895
-0.511,-0.3805,0.1315,0.446,-0.3215,-0.125,-0.2495,-0.3245,-0.3005,-0.277,-0.3025,-0.2795,-0.0105,0.134,0.1905
-0.513,-0.385,0.1285,0.4495,-0.321,-0.1285,-0.25,-0.3255,-0.3015,-0.2785,-0.3045,-0.2815,-0.01,0.1375,0.1895
-0.514,-0.382,0.132,0.4485,-0.323,-0.1255,-0.2485,-0.3225,-0.2995,-0.276,-0.303,-0.281,-0.0085,0.1395,0.1885
-0.52,-0.3835,0.137,0.452,-0.3285,-0.1235,-0.2505,-0.3235,-0.2995,-0.2755,-0.3025,-0.279,-0.008,0.1385,0.1895
-0.5245,-0.383,0.142,0.454,-0.3335,-0.121,-0.2505,-0.3245,-0.2995,-0.275,-0.304,-0.2815,-0.0105,0.1415,0.1885
-0.5215,-0.38,0.1415,0.451,-0.3315,-0.1195,-0.246,-0.3185,-0.294,-0.2705,-0.3005,-0.2785,-0.01,0.141,0.1865
-0.521,-0.3825,0.139,0.4525,-0.3305,-0.122,-0.249,-0.3215,-0.2975,-0.2725,-0.303,-0.279,-0.009,0.14,0.1875
-0.508,-0.3765,0.132,0.4425,-0.32,-0.1225,-0.246,-0.322,-0.297,-0.2715,-0.303,-0.2795,-0.01,0.137,0.187
-0.5005,-0.3695,0.1315,0.4355,-0.316,-0.119,-0.2425,-0.3175,-0.292,-0.2665,-0.2985,-0.276,-0.0085,0.1355,0.1855
-0.5115,-0.373,0.139,0.4425,-0.325,-0.1175,-0.2445,-0.3185,-0.294,-0.268,-0.3005,-0.277,-0.0095,0.136,0.186
-0.5155,-0.37,0.146,0.443,-0.3305,-0.1125,-0.2435,-0.3175,-0.289,-0.2615,-0.2945,-0.2745,-0.009,0.137,0.1845
-0.5175,-0.3675,0.151,0.443,-0.3345,-0.1085,-0.2435,-0.318,-0.2895,-0.2625,-0.296,-0.277,-0.01,0.142,0.1835
-0.5195,-0.3715,0.148,0.4455,-0.334,-0.112,-0.243,-0.3185,-0.2955,-0.2695,-0.304,-0.2825,-0.014,0.139,0.1845
-0.517,-0.3775,0.14,0.4475,-0.3285,-0.119,-0.2425,-0.3185,-0.293,-0.2675,-0.3025,-0.2805,-0.0125,0.1355,0.1845
-0.5065,-0.3705,0.1365,0.4385,-0.3215,-0.1175,-0.2415,-0.3155,-0.2905,-0.265,-0.2985,-0.2775,-0.0095,0.14,0.183
-0.505,-0.362,0.1435,0.4335,-0.324,-0.1095,-0.2425,-0.3155,-0.2895,-0.2635,-0.298,-0.277,-0.009,0.139,0.183
-0.5185,-0.3715,0.1475,0.445,-0.333,-0.112,-0.245,-0.319,-0.292,-0.266,-0.3035,-0.2805,-0.01,0.137,0.183
-0.5265,-0.382,0.1455,0.4545,-0.336,-0.1185,-0.2465,-0.321,-0.295,-0.2675,-0.3055,-0.2835,-0.011,0.138,0.1805
-0.526,-0.3855,0.141,0.4565,-0.3335,-0.1225,-0.248,-0.322,-0.294,-0.267,-0.304,-0.2835,-0.01,0.138,0.181
-0.5255,-0.383,0.143,0.4545,-0.334,-0.1205,-0.2475,-0.318,-0.2905,-0.265,-0.302,-0.28,-0.009,0.136,0.1825
-0.5275,-0.383,0.1445,0.4555,-0.336,-0.1195,-0.2435,-0.3155,-0.288,-0.263,-0.301,-0.279,-0.0095,0.135,0.183
-0.5245,-0.383,0.142,0.454,-0.3335,-0.1205,-0.242,-0.315,-0.286,-0.261,-0.298,-0.278,-0.0075,0.1355,0.181
-0.52,-0.38,0.141,0.4505,-0.3305,-0.1195,-0.242,-0.3155,-0.286,-0.26,-0.297,-0.2775,-0.007,0.1365,0.182
-0.5175,-0.376,0.142,0.447,-0.3295,-0.117,-0.244,-0.32,-0.2885,-0.2635,-0.301,-0.281,-0.008,0.139,0.181
-0.5085,-0.3695,0.1395,0.4395,-0.324,-0.1155,-0.245,-0.3205,-0.288,-0.264,-0.3005,-0.282,-0.008,0.1415,0.179
-0.515,-0.3715,0.144,0.4435,-0.3295,-0.114,-0.242,-0.3165,-0.284,-0.259,-0.2975,-0.2775,-0.006,0.142,0.1795
-0.52,-0.3755,0.145,0.448,-0.3325,-0.1155,-0.2455,-0.317,-0.2855,-0.2605,-0.3,-0.279,-0.005,0.14,0.1795
-0.5095,-0.3805,0.1295,0.445,-0.3195,-0.1255,-0.2535,-0.322,-0.291,-0.2655,-0.3055,-0.2835,-0.0055,0.136,0.18
-0.513,-0.377,0.1365,0.445,-0.3245,-0.1205,-0.2465,-0.3165,-0.286,-0.2615,-0.3,-0.2795,-0.0045,0.1375,0.178
-0.5175,-0.3705,0.148,0.4445,-0.333,-0.1115,-0.241,-0.315,-0.2825,-0.258,-0.297,-0.2775,-0.0045,0.1415,0.177
-0.5215,-0.3715,0.151,0.4465,-0.3365,-0.1105,-0.2455,-0.3195,-0.2845,-0.2585,-0.2985,-0.2785,-0.004,0.1395,0.177
-0.5245,-0.373,0.152,0.449,-0.338,-0.111,-0.2435,-0.3185,-0.2845,-0.2585,-0.2985,-0.2785,-0.004,0.137,0.177
-0.52,-0.3765,0.144,0.4485,-0.332,-0.1165,-0.245,-0.318,-0.2855,-0.259,-0.3,-0.278,-0.0045,0.1345,0.1775
-0.5135,-0.377,0.137,0.4455,-0.3255,-0.12,-0.243,-0.314,-0.283,-0.257,-0.2975,-0.2765,-0.0035,0.1325,0.1765
-0.51,-0.376,0.1345,0.4435,-0.3225,-0.121,-0.2445,-0.315,-0.2825,-0.257,-0.297,-0.2775,-0.0035,0.134,0.1755
-0.5105,-0.374,0.1365,0.4425,-0.3235,-0.119,-0.2475,-0.3175,-0.2835,-0.2585,-0.2975,-0.278,-0.003,0.1405,0.175
-0.5115,-0.3745,0.1375,0.4435,-0.3245,-0.1185,-0.246,-0.3165,-0.283,-0.2585,-0.2995,-0.279,-0.0045,0.1395,0.1745
-0.514,-0.3745,0.1405,0.4445,-0.327,-0.1175,-0.249,-0.3185,-0.285,-0.26,-0.301,-0.281,-0.005,0.1345,0.1745
-0.52,-0.3765,0.144,0.4485,-0.332,-0.1165,-0.25,-0.3185,-0.285,-0.259,-0.2985,-0.2795,-0.0045,0.1335,0.1755
-0.5295,-0.3775,0.1525,0.454,-0.341,-0.113,-0.246,-0.315,-0.2805,-0.2545,-0.295,-0.277,-0.005,0.1375,0.175
-0.53,-0.378,0.1525,0.4545,-0.341,-0.113,-0.2435,-0.312,-0.277,-0.252,-0.2915,-0.2745,-0.003,0.1385,0.174
-0.5225,-0.3795,0.1435,0.4515,-0.333,-0.118,-0.2435,-0.3115,-0.2795,-0.2545,-0.294,-0.2765,-0.003,0.134,0.174
-0.5125,-0.3785,0.135,0.446,-0.324,-0.122,-0.2485,-0.314,-0.281,-0.255,-0.2955,-0.278,-0.002,0.133,0.1745
-0.5135,-0.3745,0.1395,0.4445,-0.3265,-0.1175,-0.2515,-0.317,-0.2815,-0.256,-0.2965,-0.2795,-0.002,0.1375,0.1745
-0.5255,-0.374,0.152,0.4495,-0.3385,-0.111,-0.2465,-0.3135,-0.2795,-0.254,-0.294,-0.278,-0.0035,0.1385,0.1725
-0.534,-0.377,0.1575,0.456,-0.346,-0.11,-0.242,-0.307,-0.2745,-0.2485,-0.288,-0.2735,-0.003,0.1375,0.1735
-0.5305,-0.374,0.1565,0.4525,-0.3435,-0.109,-0.2405,-0.308,-0.2735,-0.2475,-0.288,-0.2735,-0.002,0.1405,0.1735
-0.5205,-0.3725,0.1485,0.447,-0.3345,-0.1125,-0.242,-0.31,-0.2745,-0.248,-0.2885,-0.274,-0.003,0.14,0.172
-0.5245,-0.3765,0.1485,0.451,-0.3365,-0.1145,-0.243,-0.31,-0.275,-0.247,-0.2905,-0.275,-0.002,0.1405,0.171
-0.5295,-0.38,0.15,0.455,-0.3395,-0.1155,-0.2455,-0.314,-0.2775,-0.2505,-0.2935,-0.2775,-0.0025,0.134,0.1725
-0.5255,-0.3715,0.1545,0.4485,-0.34,-0.1085,-0.245,-0.312,-0.2765,-0.249,-0.293,-0.278,-0.0025,0.134,0.1715
-0.5215,-0.364,0.158,0.4435,-0.3395,-0.1035,-0.2435,-0.313,-0.2775,-0.248,-0.2925,-0.277,-0.003,0.1365,0.1705
-0.525,-0.3695,0.156,0.4475,-0.3405,-0.107,-0.246,-0.314,-0.2785,-0.2505,-0.292,-0.2785,-0.0055,0.1365,0.17
-0.5315,-0.377,0.155,0.4545,-0.343,-0.1115,-0.2445,-0.313,-0.2755,-0.247,-0.292,-0.2785,-0.005,0.135,0.17
-0.5335,-0.3825,0.1515,0.458,-0.3425,-0.1155,-0.2455,-0.315,-0.278,-0.249,-0.295,-0.28,-0.005,0.132,0.1725
-0.5305,-0.378,0.153,0.455,-0.342,-0.113,-0.247,-0.315,-0.2775,-0.2485,-0.293,-0.279,-0.0035,0.1395,0.1715
-0.527,-0.3765,0.151,0.452,-0.339,-0.113,-0.2465,-0.316,-0.278,-0.2485,-0.2925,-0.28,-0.005,0.138,0.171
-0.529,-0.3725,0.157,0.451,-0.343,-0.108,-0.245,-0.314,-0.2795,-0.2515,-0.2935,-0.281,-0.006,0.1415,0.1705
-0.5345,-0.3725,0.1625,0.454,-0.3485,-0.1055,-0.242,-0.3125,-0.2775,-0.2495,-0.293,-0.278,-0.0045,0.141,0.1705
-0.535,-0.377,0.159,0.4565,-0.347,-0.109,-0.241,-0.312,-0.277,-0.248,-0.2935,-0.279,-0.005,0.1345,0.172
-0.5285,-0.377,0.152,0.453,-0.34,-0.1125,-0.2415,-0.312,-0.2775,-0.2485,-0.2915,-0.278,-0.004,0.136,0.172
-0.521,-0.3795,0.142,0.4505,-0.3315,-0.119,-0.245,-0.316,-0.28,-0.2525,-0.294,-0.281,-0.0045,0.1335,0.1725
-0.5185,-0.38,0.1395,0.4495,-0.329,-0.1205,-0.248,-0.318,-0.2815,-0.2525,-0.2955,-0.281,-0.0025,0.1355,0.1725
-0.5165,-0.375,0.1415,0.446,-0.329,-0.117,-0.253,-0.321,-0.285,-0.257,-0.298,-0.285,-0.003,0.14,0.172
-0.5175,-0.3735,0.1445,0.4455,-0.331,-0.1145,-0.254,-0.3205,-0.2845,-0.2565,-0.298,-0.286,-0.0035,0.1395,0.1725
-0.5205,-0.3755,0.146,0.448,-0.3335,-0.115,-0.2495,-0.3165,-0.2795,-0.2515,-0.2945,-0.28,-0.0025,0.1395,0.1735
-0.521,-0.3745,0.147,0.448,-0.334,-0.114,-0.2485,-0.3155,-0.2805,-0.251,-0.2925,-0.2805,-0.0015,0.139,0.174
-0.5175,-0.375,0.1425,0.4465,-0.33,-0.1165,-0.2465,-0.3135,-0.2785,-0.248,-0.291,-0.2775,0.0005,0.135,0.1735
-0.513,-0.3725,0.141,0.443,-0.327,-0.116,-0.25,-0.3155,-0.2795,-0.2505,-0.2925,-0.279,0.0,0.1355,0.173
-0.517,-0.377,0.141,0.4475,-0.329,-0.118,-0.25,-0.3155,-0.281,-0.251,-0.2925,-0.281,-0.001,0.136,0.171
-0.5215,-0.383,0.139,0.4525,-0.3305,-0.1225,-0.246,-0.3135,-0.28,-0.249,-0.2915,-0.2795,-0.0015,0.133,0.1705
-0.519,-0.38,0.14,0.4495,-0.3295,-0.12,-0.247,-0.3145,-0.281,-0.2485,-0.2915,-0.2805,-0.002,0.131,0.1715
-0.517,-0.3775,0.14,0.4475,-0.3285,-0.119,-0.25,-0.3145,-0.2825,-0.2495,-0.292,-0.28,-0.001,0.135,0.171
-0.522,-0.3825,0.1405,0.4525,-0.3315,-0.121,-0.2475,-0.314,-0.283,-0.2495,-0.293,-0.28,-0.0015,0.135,0.1715
-0.5245,-0.3855,0.1395,0.4555,-0.332,-0.1235,-0.248,-0.3155,-0.284,-0.2495,-0.293,-0.281,-0.0015,0.1345,0.1715
-0.521,-0.381,0.1405,0.4515,-0.331,-0.121,-0.253,-0.318,-0.287,-0.2525,-0.2945,-0.283,-0.0005,0.136,0.1715
-0.523,-0.3825,0.141,0.453,-0.332,-0.1215,-0.2505,-0.3165,-0.2865,-0.252,-0.2955,-0.283,-0.0015,0.137,0.171
-0.527,-0.382,0.1455,0.4545,-0.336,-0.1185,-0.2485,-0.316,-0.287,-0.252,-0.2965,-0.2835,-0.002,0.1435,0.171
-0.5305,-0.3825,0.149,0.4565,-0.3395,-0.117,-0.244,-0.3165,-0.286,-0.2525,-0.2955,-0.283,-0.0015,0.146,0.1695
-0.534,-0.3865,0.148,0.4605,-0.341,-0.1195,-0.2475,-0.3155,-0.2865,-0.252,-0.2945,-0.2825,0.0,0.14,0.171
-0.5275,-0.389,0.139,0.4585,-0.333,-0.1255,-0.2535,-0.3185,-0.2905,-0.2545,-0.2965,-0.2845,0.001,0.1355,0.1725
-0.5185,-0.391,0.128,0.4545,-0.323,-0.1315,-0.2585,-0.3235,-0.2945,-0.26,-0.302,-0.2895,0.002,0.137,0.1725
-0.521,-0.394,0.1275,0.4575,-0.3245,-0.1335,-0.2575,-0.323,-0.294,-0.2585,-0.301,-0.288,0.0025,0.133,0.172
-0.524,-0.3975,0.1275,0.461,-0.3255,-0.1355,-0.2565,-0.3215,-0.292,-0.257,-0.297,-0.2845,0.004,0.132,0.1715
-0.519,-0.389,0.131,0.4545,-0.325,-0.129,-0.256,-0.32,-0.2895,-0.255,-0.295,-0.283,0.003,0.1375,0.172
-0.5165,-0.3855,0.1315,0.451,-0.324,-0.127,-0.2505,-0.316,-0.2865,-0.252,-0.2915,-0.2805,0.0025,0.136,0.1715
-0.515,-0.3855,0.13,0.4505,-0.3225,-0.128,-0.2535,-0.3175,-0.289,-0.253,-0.293,-0.2805,0.0035,0.1325,0.1715
-0.5175,-0.391,0.127,0.4545,-0.3225,-0.132,-0.256,-0.32,-0.2895,-0.2545,-0.294,-0.2815,0.004,0.132,0.1715
-0.511,-0.3865,0.125,0.449,-0.318,-0.131,-0.2535,-0.3175,-0.287,-0.2525,-0.291,-0.28,0.005,0.1365,0.171
-0.501,-0.373,0.129,0.4375,-0.315,-0.122,-0.2485,-0.313,-0.285,-0.249,-0.2875,-0.2775,0.003,0.135,0.1705
-0.511,-0.381,0.1305,0.446,-0.3205,-0.1255,-0.254,-0.319,-0.291,-0.2555,-0.2945,-0.2825,0.0015,0.1285,0.1725
-0.518,-0.3855,0.1335,0.452,-0.326,-0.126,-0.2595,-0.325,-0.2955,-0.2585,-0.2975,-0.285,0.0015,0.1285,0.1735
-0.5145,-0.3825,0.1325,0.4485,-0.3235,-0.1255,-0.257,-0.324,-0.295,-0.2565,-0.2955,-0.2845,0.0015,0.135,0.172
-0.5115,-0.385,0.127,0.4485,-0.3195,-0.1295,-0.249,-0.318,-0.292,-0.2545,-0.295,-0.282,0.0015,0.1335,0.173
-0.5165,-0.386,0.131,0.4515,-0.324,-0.1275,-0.248,-0.316,-0.2885,-0.252,-0.2915,-0.2785,0.003,0.132,0.173
-0.5175,-0.3795,0.138,0.4485,-0.328,-0.121,-0.252,-0.3175,-0.2905,-0.254,-0.292,-0.279,0.003,0.132,0.1735
-0.5145,-0.376,0.1385,0.4455,-0.3265,-0.119,-0.251,-0.315,-0.2895,-0.2535,-0.293,-0.279,-0.0005,0.129,0.174
-0.5105,-0.377,0.134,0.4435,-0.322,-0.1215,-0.2565,-0.319,-0.292,-0.2565,-0.296,-0.279,0.0015,0.132,0.174
-0.507,-0.375,0.1325,0.4415,-0.3195,-0.1215,-0.252,-0.32,-0.2935,-0.257,-0.2955,-0.28,0.0025,0.137,0.1725
-0.5025,-0.3735,0.1295,0.4385,-0.316,-0.122,-0.2505,-0.318,-0.2905,-0.256,-0.2935,-0.2795,0.002,0.138,0.174
-0.5075,-0.377,0.131,0.4425,-0.3195,-0.123,-0.253,-0.3175,-0.29,-0.2565,-0.292,-0.2775,0.003,0.1295,0.177
-0.512,-0.38,0.133,0.446,-0.3225,-0.1235,-0.251,-0.317,-0.2905,-0.256,-0.291,-0.2765,0.0025,0.1305,0.1755
-0.502,-0.3765,0.126,0.4395,-0.314,-0.126,-0.251,-0.316,-0.2915,-0.257,-0.2925,-0.276,0.0025,0.134,0.1755
-0.5045,-0.3725,0.1325,0.4385,-0.3185,-0.12,-0.2525,-0.317,-0.2955,-0.2595,-0.2945,-0.2785,0.001,0.132,0.175
-0.508,-0.372,0.1365,0.44,-0.322,-0.118,-0.2545,-0.3185,-0.293,-0.259,-0.293,-0.2775,0.0015,0.1325,0.175
-0.511,-0.3745,0.137,0.443,-0.324,-0.119,-0.2515,-0.3185,-0.292,-0.2575,-0.292,-0.275,0.0005,0.13,0.1755
-0.513,-0.374,0.139,0.444,-0.326,-0.118,-0.249,-0.3175,-0.2925,-0.2565,-0.291,-0.274,-0.0005,0.132,0.175
-0.508,-0.377,0.132,0.443,-0.32,-0.123,-0.247,-0.3135,-0.2915,-0.2565,-0.29,-0.2715,0.001,0.132,0.175
-0.5055,-0.38,0.126,0.443,-0.3155,-0.1275,-0.2495,-0.316,-0.2935,-0.2575,-0.293,-0.2755,0.0,0.1275,0.175
-0.501,-0.3805,0.121,0.441,-0.311,-0.13,-0.251,-0.3195,-0.296,-0.2605,-0.2945,-0.2775,0.0,0.1265,0.175
-0.4965,-0.3765,0.1205,0.437,-0.3085,-0.1285,-0.257,-0.322,-0.3,-0.2635,-0.299,-0.279,0.0005,0.13,0.1755
-0.493,-0.368,0.1255,0.431,-0.3095,-0.1215,-0.256,-0.322,-0.298,-0.262,-0.297,-0.2785,0.0,0.1305,0.1765
-0.4915,-0.362,0.13,0.427,-0.311,-0.1165,-0.2495,-0.32,-0.297,-0.2615,-0.296,-0.276,0.0005,0.1295,0.1755
-0.491,-0.365,0.126,0.4285,-0.3085,-0.12,-0.2475,-0.318,-0.2975,-0.262,-0.2965,-0.2755,0.001,0.13,0.1765
-0.4975,-0.371,0.1265,0.4345,-0.312,-0.1225,-0.2475,-0.3165,-0.295,-0.2595,-0.2935,-0.2735,0.0005,0.1305,0.1765
-0.5015,-0.374,0.128,0.438,-0.3145,-0.1235,-0.25,-0.3145,-0.2935,-0.258,-0.2925,-0.2715,0.0005,0.129,0.1765
-0.494,-0.378,0.1165,0.436,-0.305,-0.131,-0.2465,-0.3125,-0.292,-0.256,-0.2905,-0.2685,0.0,0.123,0.1765
-0.4855,-0.371,0.1145,0.4285,-0.3,-0.1285,-0.244,-0.312,-0.292,-0.2565,-0.293,-0.2705,-0.001,0.1255,0.176
-0.482,-0.363,0.1195,0.4225,-0.3005,-0.122,-0.246,-0.314,-0.292,-0.2575,-0.292,-0.272,-0.0005,0.127,0.1745
-0.485,-0.366,0.1195,0.4255,-0.3025,-0.1235,-0.247,-0.315,-0.293,-0.258,-0.2915,-0.271,0.0,0.129,0.174
-0.4865,-0.3695,0.117,0.428,-0.3015,-0.1265,-0.247,-0.314,-0.2925,-0.2585,-0.293,-0.2705,0.0,0.13,0.1745
-0.484,-0.3695,0.1155,0.427,-0.3,-0.127,-0.251,-0.3175,-0.293,-0.2585,-0.2935,-0.269,0.0,0.128,0.1755
-0.486,-0.366,0.1205,0.426,-0.303,-0.123,-0.2475,-0.3165,-0.2915,-0.257,-0.293,-0.2675,0.001,0.132,0.1755
-0.4855,-0.3595,0.1265,0.4225,-0.306,-0.117,-0.2485,-0.3165,-0.291,-0.2565,-0.291,-0.267,0.002,0.1355,0.173
-0.4895,-0.3585,0.1315,0.4245,-0.3105,-0.114,-0.2485,-0.3155,-0.292,-0.257,-0.292,-0.266,0.0005,0.134,0.1715
-0.498,-0.358,0.1405,0.428,-0.319,-0.109,-0.246,-0.314,-0.288,-0.25,-0.287,-0.2615,-0.0005,0.1355,0.17
-0.499,-0.353,0.1465,0.4265,-0.323,-0.1035,-0.2455,-0.314,-0.2845,-0.245,-0.2815,-0.257,0.001,0.1425,0.1665
-0.4925,-0.348,0.1455,0.4205,-0.319,-0.1015,-0.2445,-0.3145,-0.2845,-0.247,-0.2835,-0.2575,-0.0005,0.1475,0.1645
-0.4865,-0.3345,0.1525,0.4105,-0.3195,-0.091,-0.246,-0.3175,-0.2825,-0.2425,-0.283,-0.256,-0.002,0.1555,0.16
-0.4755,-0.326,0.15,0.401,-0.313,-0.088,-0.2455,-0.3175,-0.284,-0.2425,-0.282,-0.2555,-0.002,0.1625,0.157
-0.471,-0.3215,0.15,0.3965,-0.3105,-0.086,-0.2485,-0.32,-0.2865,-0.2445,-0.285,-0.2585,-0.0035,0.165,0.1545
-0.479,-0.3165,0.163,0.398,-0.321,-0.077,-0.2495,-0.321,-0.285,-0.2415,-0.2835,-0.256,-0.0045,0.1665,0.154
-0.4695,-0.3105,0.1595,0.39,-0.3145,-0.0755,-0.247,-0.319,-0.284,-0.24,-0.2815,-0.253,-0.002,0.1655,0.156
-0.4625,-0.3075,0.1555,0.3855,-0.3095,-0.076,-0.2425,-0.314,-0.279,-0.234,-0.276,-0.249,0.0005,0.164,0.1565
-0.464,-0.3075,0.157,0.386,-0.3105,-0.0755,-0.2435,-0.314,-0.2775,-0.233,-0.274,-0.249,0.0015,0.17,0.155
-0.469,-0.3085,0.161,0.389,-0.315,-0.074,-0.247,-0.317,-0.279,-0.2345,-0.2755,-0.2495,0.0025,0.1745,0.152
-0.4755,-0.3115,0.1645,0.3935,-0.32,-0.0735,-0.246,-0.317,-0.278,-0.2335,-0.2735,-0.25,0.0005,0.173,0.151
-0.47,-0.3045,0.166,0.3875,-0.318,-0.0695,-0.245,-0.3155,-0.277,-0.2335,-0.273,-0.249,-0.0015,0.171,0.1505
-0.4655,-0.299,0.167,0.3825,-0.3165,-0.066,-0.2425,-0.314,-0.276,-0.232,-0.272,-0.248,-0.0005,0.173,0.149
-0.458,-0.2955,0.163,0.377,-0.3105,-0.0665,-0.2425,-0.314,-0.276,-0.232,-0.2735,-0.2485,-0.0015,0.1765,0.148
-0.4605,-0.2975,0.163,0.379,-0.312,-0.0675,-0.241,-0.3125,-0.2755,-0.2315,-0.2725,-0.2465,-0.0015,0.1705,0.149
-0.468,-0.3005,0.168,0.3845,-0.318,-0.0665,-0.2395,-0.315,-0.2745,-0.2305,-0.2705,-0.245,-0.002,0.1725,0.147
-0.4685,-0.296,0.1735,0.3825,-0.321,-0.0615,-0.237,-0.314,-0.272,-0.2295,-0.27,-0.2435,-0.0025,0.1815,0.145
-0.4615,-0.2875,0.1745,0.375,-0.318,-0.057,-0.2395,-0.316,-0.2755,-0.23,-0.272,-0.2465,-0.003,0.186,0.143
-0.4545,-0.2875,0.1675,0.3715,-0.311,-0.0605,-0.2425,-0.3185,-0.276,-0.231,-0.2735,-0.248,-0.002,0.1885,0.142
-0.4555,-0.289,0.167,0.3725,-0.3115,-0.0615,-0.239,-0.314,-0.273,-0.228,-0.271,-0.2445,-0.0005,0.1875,0.1435
-0.4525,-0.281,0.172,0.367,-0.3125,-0.0545,-0.239,-0.313,-0.272,-0.2255,-0.2685,-0.241,0.002,0.1875,0.145
-0.4525,-0.2795,0.1735,0.366,-0.313,-0.053,-0.239,-0.3125,-0.27,-0.2235,-0.266,-0.238,0.003,0.1805,0.1465
-0.4575,-0.2865,0.1715,0.3725,-0.3145,-0.058,-0.241,-0.3135,-0.2725,-0.2245,-0.2675,-0.24,0.0035,0.179,0.1455
-0.4605,-0.2915,0.1695,0.3765,-0.315,-0.061,-0.244,-0.3165,-0.274,-0.2265,-0.269,-0.2415,0.0035,0.184,0.1455
-0.459,-0.286,0.1735,0.373,-0.3165,-0.0565,-0.2455,-0.3175,-0.274,-0.2255,-0.268,-0.2415,0.005,0.185,0.146
-0.4635,-0.285,0.179,0.3745,-0.321,-0.053,-0.2515,-0.319,-0.2765,-0.2275,-0.2695,-0.2435,0.007,0.1885,0.147
-0.461,-0.2835,0.178,0.373,-0.3195,-0.053,-0.253,-0.3185,-0.2745,-0.2265,-0.2695,-0.2445,0.0085,0.19,0.1475
-0.4555,-0.2875,0.1685,0.372,-0.312,-0.06,-0.2505,-0.3145,-0.2715,-0.224,-0.266,-0.2415,0.011,0.1835,0.149
-0.455,-0.2885,0.167,0.372,-0.311,-0.0615,-0.2535,-0.315,-0.274,-0.225,-0.2665,-0.2395,0.012,0.1755,0.1515
-0.4525,-0.285,0.1675,0.369,-0.31,-0.059,-0.249,-0.313,-0.272,-0.224,-0.266,-0.24,0.0125,0.1775,0.149
-0.4555,-0.287,0.169,0.3715,-0.312,-0.0595,-0.243,-0.308,-0.2675,-0.2215,-0.264,-0.239,0.0125,0.1775,0.1465
-0.4555,-0.277,0.1795,0.3665,-0.3175,-0.049,-0.2375,-0.304,-0.2625,-0.2155,-0.2595,-0.235,0.0135,0.1805,0.1435
-0.4535,-0.269,0.185,0.3615,-0.3195,-0.042,-0.2355,-0.3,-0.257,-0.211,-0.2555,-0.231,0.017,0.188,0.141
-0.447,-0.269,0.178,0.358,-0.3125,-0.0455,-0.244,-0.3035,-0.2595,-0.2125,-0.2565,-0.233,0.0215,0.1865,0.142
-0.4405,-0.2745,0.167,0.3575,-0.304,-0.054,-0.25,-0.3065,-0.2625,-0.2155,-0.2585,-0.235,0.023,0.1815,0.1425
-0.432,-0.272,0.1605,0.352,-0.296,-0.056,-0.249,-0.3005,-0.2565,-0.2115,-0.2555,-0.23,0.027,0.1765,0.145
-0.43,-0.273,0.1575,0.3515,-0.294,-0.058,-0.2455,-0.2955,-0.2525,-0.207,-0.2505,-0.2275,0.033,0.1735,0.147
-0.442,-0.28,0.1625,0.3615,-0.3025,-0.059,-0.2495,-0.2995,-0.2535,-0.2095,-0.2525,-0.2295,0.0365,0.178,0.1485
-0.4425,-0.2805,0.1625,0.3615,-0.3025,-0.059,-0.255,-0.2995,-0.253,-0.209,-0.251,-0.2275,0.041,0.1805,0.15
-0.4435,-0.276,0.168,0.36,-0.3055,-0.0545,-0.256,-0.301,-0.2525,-0.2045,-0.2475,-0.223,0.0425,0.181,0.15
-0.4445,-0.2675,0.1775,0.3565,-0.311,-0.0455,-0.26,-0.305,-0.2515,-0.201,-0.243,-0.219,0.044,0.1915,0.1505
-0.4385,-0.2625,0.1765,0.351,-0.3075,-0.0435,-0.265,-0.3095,-0.254,-0.2015,-0.243,-0.2175,0.0455,0.1995,0.152
-0.434,-0.2565,0.178,0.3455,-0.306,-0.0395,-0.2705,-0.3165,-0.2595,-0.205,-0.248,-0.2195,0.0455,0.207,0.153
-0.422,-0.25,0.1725,0.336,-0.297,-0.039,-0.2785,-0.3205,-0.2615,-0.206,-0.2455,-0.2185,0.0485,0.2135,0.155
-0.4265,-0.251,0.176,0.339,-0.3015,-0.0375,-0.284,-0.3255,-0.2625,-0.2065,-0.244,-0.216,0.051,0.2125,0.1605
-0.4345,-0.2565,0.1785,0.3455,-0.3065,-0.039,-0.2865,-0.328,-0.2675,-0.2105,-0.2485,-0.219,0.0485,0.2055,0.166
-0.4215,-0.2565,0.1655,0.3395,-0.2935,-0.046,-0.2875,-0.3285,-0.2735,-0.217,-0.252,-0.223,0.047,0.2005,0.1715
-0.4165,-0.2655,0.1515,0.3415,-0.284,-0.0575,-0.282,-0.322,-0.272,-0.2165,-0.2475,-0.2185,0.049,0.192,0.179
-0.418,-0.2705,0.1485,0.3445,-0.283,-0.061,-0.2865,-0.324,-0.2765,-0.2215,-0.2485,-0.2185,0.0505,0.19,0.188
-0.422,-0.2725,0.15,0.3475,-0.286,-0.0615,-0.294,-0.334,-0.286,-0.2305,-0.2535,-0.222,0.0515,0.193,0.197
-0.4205,-0.274,0.1465,0.3475,-0.2835,-0.064,-0.296,-0.334,-0.2865,-0.2325,-0.2515,-0.2185,0.0535,0.1875,0.2045
-0.4165,-0.272,0.145,0.3445,-0.281,-0.064,-0.2985,-0.334,-0.2895,-0.2355,-0.2505,-0.218,0.054,0.184,0.2095
-0.4175,-0.2775,0.141,0.348,-0.2795,-0.0685,-0.3,-0.337,-0.2935,-0.239,-0.2535,-0.2205,0.0525,0.183,0.215
-0.4175,-0.278,0.14,0.3485,-0.279,-0.069,-0.3025,-0.34,-0.2955,-0.244,-0.2575,-0.2235,0.0495,0.184,0.216
-0.4245,-0.291,0.134,0.358,-0.279,-0.0785,-0.2985,-0.3385,-0.2985,-0.2475,-0.2595,-0.226,0.048,0.176,0.218
-0.43,-0.3035,0.1275,0.367,-0.2785,-0.0885,-0.297,-0.3385,-0.3025,-0.2525,-0.2635,-0.23,0.046,0.172,0.222
-0.433,-0.3095,0.124,0.3715,-0.2785,-0.093,-0.297,-0.3435,-0.306,-0.2605,-0.268,-0.234,0.044,0.17,0.227
-0.437,-0.307,0.13,0.3725,-0.2835,-0.089,-0.295,-0.342,-0.307,-0.262,-0.2685,-0.2345,0.043,0.1685,0.2275
-0.4365,-0.307,0.13,0.372,-0.283,-0.0885,-0.298,-0.338,-0.3075,-0.261,-0.2675,-0.235,0.0425,0.167,0.227
-0.4335,-0.314,0.1195,0.374,-0.2765,-0.0975,-0.298,-0.3395,-0.308,-0.2625,-0.2685,-0.2355,0.0455,0.161,0.23
-0.4275,-0.314,0.114,0.371,-0.271,-0.1005,-0.298,-0.339,-0.307,-0.2615,-0.2675,-0.234,0.05,0.1585,0.2295
-0.4225,-0.319,0.104,0.371,-0.2635,-0.108,-0.298,-0.334,-0.305,-0.2605,-0.2625,-0.231,0.0555,0.1545,0.232
-0.419,-0.312,0.1075,0.366,-0.2635,-0.1025,-0.2975,-0.3335,-0.3045,-0.26,-0.261,-0.2305,0.0555,0.157,0.2325
-0.4165,-0.307,0.11,0.362,-0.263,-0.099,-0.296,-0.334,-0.304,-0.259,-0.2625,-0.2305,0.053,0.1615,0.2295
-0.415,-0.3095,0.106,0.3625,-0.2605,-0.102,-0.2975,-0.335,-0.3045,-0.259,-0.2605,-0.229,0.055,0.164,0.226
-0.414,-0.3045,0.11,0.3595,-0.262,-0.0975,-0.3005,-0.337,-0.3055,-0.259,-0.259,-0.2295,0.0535,0.1685,0.2235
-0.417,-0.307,0.11,0.362,-0.2635,-0.0985,-0.297,-0.3365,-0.3055,-0.2605,-0.262,-0.2315,0.0505,0.1655,0.2235
-0.418,-0.317,0.1015,0.368,-0.26,-0.108,-0.2955,-0.3335,-0.307,-0.2625,-0.265,-0.2335,0.0475,0.1545,0.2265
-0.422,-0.3215,0.101,0.372,-0.2615,-0.1105,-0.2985,-0.336,-0.31,-0.2655,-0.2675,-0.234,0.046,0.152,0.2305
-0.423,-0.3195,0.1035,0.3715,-0.2635,-0.1085,-0.2975,-0.3425,-0.3145,-0.269,-0.269,-0.236,0.044,0.162,0.23
-0.429,-0.323,0.1065,0.376,-0.268,-0.1085,-0.2945,-0.3455,-0.317,-0.2715,-0.2725,-0.24,0.0385,0.1645,0.2305
-0.434,-0.3235,0.111,0.379,-0.2725,-0.1065,-0.295,-0.3485,-0.318,-0.273,-0.275,-0.241,0.036,0.1625,0.2315
-0.435,-0.323,0.1125,0.379,-0.2735,-0.1055,-0.292,-0.347,-0.316,-0.272,-0.2735,-0.242,0.036,0.1575,0.2285
-0.445,-0.3255,0.1195,0.3855,-0.282,-0.103,-0.289,-0.344,-0.3155,-0.274,-0.2765,-0.246,0.034,0.154,0.226
-0.4445,-0.3285,0.1165,0.3865,-0.2805,-0.106,-0.2835,-0.3445,-0.312,-0.2705,-0.275,-0.2445,0.032,0.1595,0.2215
-0.4525,-0.337,0.116,0.395,-0.284,-0.111,-0.2745,-0.339,-0.305,-0.2635,-0.2695,-0.239,0.0315,0.159,0.2165
-0.456,-0.3415,0.115,0.399,-0.2855,-0.1135,-0.272,-0.3375,-0.3085,-0.267,-0.2745,-0.243,0.029,0.156,0.217
-0.452,-0.337,0.1155,0.3945,-0.2835,-0.111,-0.275,-0.3425,-0.312,-0.271,-0.28,-0.25,0.026,0.1515,0.2105
-0.457,-0.337,0.12,0.3975,-0.2885,-0.1085,-0.2755,-0.343,-0.309,-0.267,-0.278,-0.2485,0.0265,0.147,0.207
-0.4525,-0.336,0.117,0.3945,-0.285,-0.1095,-0.2715,-0.339,-0.307,-0.265,-0.276,-0.2465,0.0265,0.15,0.208
-0.4595,-0.3395,0.121,0.4,-0.2905,-0.1095,-0.2665,-0.335,-0.3055,-0.2655,-0.276,-0.2475,0.0245,0.149,0.2065
-0.4745,-0.347,0.1285,0.411,-0.3015,-0.1095,-0.263,-0.333,-0.3035,-0.2645,-0.275,-0.2475,0.022,0.1455,0.206
-0.4765,-0.3475,0.1295,0.4125,-0.303,-0.1095,-0.2625,-0.332,-0.303,-0.264,-0.2745,-0.2485,0.022,0.1415,0.2035
-0.479,-0.3515,0.128,0.4155,-0.3035,-0.1115,-0.26,-0.331,-0.3025,-0.2645,-0.2755,-0.2495,0.02,0.1345,0.201
-0.4805,-0.35,0.131,0.4155,-0.306,-0.11,-0.259,-0.3315,-0.3035,-0.2655,-0.277,-0.252,0.0185,0.132,0.199
-0.4765,-0.348,0.129,0.4125,-0.303,-0.1095,-0.26,-0.332,-0.306,-0.268,-0.2805,-0.2565,0.017,0.133,0.199
-0.4745,-0.3555,0.12,0.415,-0.297,-0.118,-0.264,-0.3365,-0.3105,-0.2745,-0.2865,-0.262,0.0135,0.1305,0.2025
-0.4705,-0.3605,0.1105,0.4155,-0.2905,-0.1255,-0.26,-0.3335,-0.31,-0.2745,-0.286,-0.261,0.0135,0.1255,0.2055
-0.4705,-0.358,0.1135,0.4145,-0.292,-0.1225,-0.259,-0.3315,-0.31,-0.274,-0.286,-0.2615,0.0115,0.123,0.207
-0.4725,-0.357,0.116,0.415,-0.2945,-0.1205,-0.2605,-0.335,-0.313,-0.2765,-0.29,-0.265,0.009,0.123,0.2055
-0.4735,-0.3595,0.1145,0.4165,-0.294,-0.1225,-0.2565,-0.333,-0.312,-0.2765,-0.2915,-0.2665,0.007,0.1205,0.2035
-0.4785,-0.3625,0.1165,0.4205,-0.2975,-0.1235,-0.2595,-0.3355,-0.3155,-0.28,-0.2955,-0.2705,0.0045,0.119,0.204
-0.484,-0.366,0.1185,0.4255,-0.301,-0.124,-0.256,-0.334,-0.315,-0.28,-0.2965,-0.271,0.0035,0.124,0.205
-0.488,-0.367,0.121,0.4275,-0.3045,-0.123,-0.258,-0.331,-0.3155,-0.279,-0.2955,-0.2705,0.0045,0.128,0.206
-0.483,-0.3695,0.1135,0.4265,-0.2985,-0.128,-0.259,-0.332,-0.317,-0.2815,-0.297,-0.2725,0.005,0.1255,0.2055
-0.484,-0.374,0.1105,0.4295,-0.2975,-0.132,-0.258,-0.3325,-0.314,-0.2825,-0.296,-0.271,0.005,0.121,0.2065
-0.4935,-0.378,0.116,0.4355,-0.3045,-0.131,-0.2565,-0.33,-0.3135,-0.2825,-0.2955,-0.2695,0.0035,0.1135,0.2095
-0.495,-0.372,0.123,0.4335,-0.309,-0.1245,-0.25,-0.327,-0.312,-0.2815,-0.2935,-0.2685,0.001,0.113,0.2095
-0.486,-0.368,0.1185,0.427,-0.3025,-0.125,-0.2495,-0.3255,-0.31,-0.28,-0.291,-0.268,0.0005,0.11,0.2095
-0.4805,-0.372,0.109,0.4265,-0.2945,-0.132,-0.2505,-0.325,-0.3105,-0.2805,-0.2915,-0.27,0.0,0.107,0.21
-0.4825,-0.3745,0.108,0.429,-0.2955,-0.1335,-0.25,-0.325,-0.3115,-0.2815,-0.2925,-0.2685,0.0005,0.108,0.2105
-0.486,-0.3775,0.109,0.432,-0.2975,-0.1345,-0.248,-0.325,-0.31,-0.28,-0.2905,-0.267,0.0015,0.105,0.209
-0.4845,-0.378,0.107,0.4315,-0.296,-0.1355,-0.249,-0.326,-0.31,-0.2805,-0.2895,-0.2685,0.0005,0.1055,0.207
-0.48,-0.3765,0.104,0.4285,-0.292,-0.1365,-0.249,-0.3265,-0.313,-0.283,-0.2935,-0.2705,0.0005,0.1105,0.207
-0.4815,-0.374,0.108,0.428,-0.295,-0.133,-0.249,-0.3275,-0.314,-0.2825,-0.294,-0.2725,-0.0005,0.1125,0.207
-0.483,-0.3735,0.11,0.4285,-0.2965,-0.1325,-0.252,-0.3305,-0.316,-0.284,-0.296,-0.275,-0.0015,0.1075,0.207
-0.4895,-0.377,0.113,0.4335,-0.301,-0.132,-0.252,-0.3315,-0.3155,-0.284,-0.294,-0.2735,-0.0005,0.1035,0.2065
-0.4885,-0.382,0.107,0.4355,-0.2975,-0.1375,-0.2475,-0.327,-0.3125,-0.2815,-0.2925,-0.2715,0.0,0.102,0.206
-0.4805,-0.3795,0.1015,0.4305,-0.291,-0.1395,-0.248,-0.3265,-0.312,-0.283,-0.2935,-0.2735,0.0005,0.1065,0.2055
-0.487,-0.377,0.11,0.4325,-0.2985,-0.1335,-0.2495,-0.326,-0.311,-0.2835,-0.2925,-0.272,0.001,0.1095,0.206
-0.492,-0.3805,0.112,0.4365,-0.302,-0.1345,-0.2485,-0.3245,-0.3125,-0.2835,-0.2925,-0.273,0.0,0.1075,0.205
-0.493,-0.3815,0.112,0.438,-0.3025,-0.135,-0.2495,-0.3295,-0.315,-0.286,-0.2935,-0.2745,0.0,0.1085,0.206
-0.4935,-0.3835,0.11,0.439,-0.3015,-0.137,-0.2505,-0.3305,-0.315,-0.286,-0.2945,-0.274,0.0,0.108,0.206
-0.4945,-0.387,0.1075,0.441,-0.301,-0.14,-0.249,-0.3275,-0.313,-0.286,-0.2935,-0.274,0.0005,0.109,0.206
-0.4965,-0.389,0.1085,0.443,-0.3025,-0.1405,-0.2495,-0.327,-0.3135,-0.286,-0.295,-0.274,0.001,0.1135,0.2065
-0.4955,-0.3875,0.1085,0.4415,-0.302,-0.1395,-0.249,-0.3265,-0.3125,-0.285,-0.295,-0.2735,0.001,0.115,0.205
-0.495,-0.387,0.1085,0.441,-0.3015,-0.1395,-0.2475,-0.328,-0.3145,-0.2855,-0.295,-0.2735,0.0015,0.1095,0.206
-0.498,-0.3865,0.1115,0.4425,-0.3045,-0.138,-0.2515,-0.332,-0.318,-0.2875,-0.298,-0.2765,0.0005,0.105,0.2045
-0.491,-0.389,0.1025,0.44,-0.2965,-0.1435,-0.252,-0.3315,-0.3165,-0.288,-0.2985,-0.2765,-0.001,0.101,0.204
-0.4905,-0.3935,0.0975,0.442,-0.294,-0.148,-0.249,-0.3285,-0.314,-0.2865,-0.296,-0.275,-0.0005,0.099,0.2035
-0.508,-0.3935,0.115,0.451,-0.3115,-0.1395,-0.2455,-0.325,-0.3105,-0.282,-0.292,-0.271,0.0,0.0985,0.203
-0.5115,-0.3925,0.119,0.4525,-0.315,-0.137,-0.2445,-0.322,-0.3095,-0.28,-0.2905,-0.269,0.001,0.0965,0.204
-0.5075,-0.393,0.115,0.4505,-0.311,-0.1395,-0.246,-0.3245,-0.311,-0.282,-0.2935,-0.2725,-0.0005,0.099,0.2025
-0.5125,-0.396,0.117,0.454,-0.3145,-0.1395,-0.2425,-0.323,-0.3115,-0.282,-0.295,-0.2725,-0.001,0.1005,0.201
-0.51,-0.3925,0.118,0.4515,-0.314,-0.1375,-0.2485,-0.3255,-0.3135,-0.284,-0.296,-0.2745,-0.001,0.1,0.2005
-0.498,-0.3885,0.11,0.4435,-0.304,-0.1395,-0.2565,-0.335,-0.3195,-0.29,-0.3015,-0.2795,-0.001,0.104,0.2015
-0.4915,-0.391,0.1015,0.4415,-0.2965,-0.145,-0.2525,-0.3335,-0.3215,-0.2905,-0.3055,-0.2815,-0.0015,0.103,0.2005
-0.493,-0.3965,0.097,0.445,-0.295,-0.15,-0.2495,-0.329,-0.3175,-0.2875,-0.3015,-0.28,-0.003,0.096,0.2
-0.5005,-0.4035,0.0975,0.4525,-0.299,-0.1535,-0.251,-0.3275,-0.3145,-0.286,-0.2985,-0.2765,-0.0005,0.093,0.201
-0.507,-0.406,0.1015,0.4565,-0.304,-0.1525,-0.248,-0.327,-0.315,-0.2855,-0.298,-0.2755,0.001,0.092,0.2005
-0.508,-0.403,0.106,0.4555,-0.307,-0.1485,-0.249,-0.33,-0.316,-0.2865,-0.299,-0.2785,-0.001,0.095,0.2005
-0.5095,-0.402,0.1085,0.456,-0.309,-0.147,-0.2505,-0.329,-0.3165,-0.287,-0.3,-0.2785,0.0,0.099,0.201
-0.509,-0.4035,0.106,0.4565,-0.3075,-0.149,-0.2505,-0.3285,-0.3155,-0.287,-0.2995,-0.2785,0.0005,0.1005,0.1995
-0.5085,-0.4035,0.1055,0.4565,-0.307,-0.1495,-0.251,-0.3305,-0.3165,-0.289,-0.301,-0.2795,0.001,0.1,0.201
-0.509,-0.4045,0.105,0.457,-0.307,-0.15,-0.2505,-0.331,-0.3175,-0.289,-0.301,-0.2785,0.001,0.1,0.201
-0.5065,-0.4055,0.1015,0.456,-0.304,-0.152,-0.252,-0.3315,-0.317,-0.289,-0.3005,-0.2785,0.002,0.1,0.1995
-0.5005,-0.405,0.096,0.4525,-0.298,-0.1545,-0.251,-0.332,-0.316,-0.2875,-0.2985,-0.277,0.0045,0.1,0.2
-0.503,-0.3995,0.104,0.4515,-0.304,-0.148,-0.2535,-0.3335,-0.316,-0.288,-0.3015,-0.279,0.0035,0.1035,0.2
-0.511,-0.403,0.108,0.4575,-0.3095,-0.1475,-0.2515,-0.3325,-0.3205,-0.292,-0.3065,-0.2805,0.0015,0.0995,0.2005
-0.518,-0.409,0.1095,0.464,-0.3135,-0.15,-0.251,-0.332,-0.319,-0.2905,-0.302,-0.277,0.004,0.095,0.2005
-0.5245,-0.41,0.115,0.4675,-0.32,-0.1475,-0.251,-0.331,-0.315,-0.2865,-0.2985,-0.2755,0.005,0.0995,0.1995
-0.516,-0.411,0.106,0.464,-0.311,-0.153,-0.25,-0.33,-0.316,-0.2865,-0.2995,-0.278,0.0045,0.1025,0.1985
-0.5005,-0.41,0.091,0.4555,-0.296,-0.16,-0.256,-0.3355,-0.3195,-0.2915,-0.3045,-0.282,0.005,0.1045,0.1985
-0.497,-0.4095,0.088,0.4535,-0.2925,-0.161,-0.2585,-0.338,-0.3225,-0.2935,-0.307,-0.2835,0.0045,0.1025,0.1985
-0.5025,-0.4075,0.0955,0.455,-0.299,-0.1565,-0.2585,-0.337,-0.3205,-0.2925,-0.3055,-0.2835,0.004,0.097,0.1985
-0.506,-0.4055,0.101,0.456,-0.3035,-0.1525,-0.261,-0.336,-0.3185,-0.291,-0.304,-0.2825,0.0035,0.0965,0.199
-0.5055,-0.407,0.099,0.4565,-0.302,-0.1545,-0.2585,-0.334,-0.318,-0.2895,-0.3035,-0.281,0.003,0.0975,0.199
-0.503,-0.4115,0.0915,0.4575,-0.2975,-0.1605,-0.2545,-0.3315,-0.3165,-0.2875,-0.304,-0.2805,0.0045,0.0965,0.1995
-0.5015,-0.4055,0.0965,0.4535,-0.299,-0.155,-0.2535,-0.3295,-0.3145,-0.2845,-0.3005,-0.2785,0.006,0.102,0.199
-0.5025,-0.4055,0.0975,0.454,-0.3,-0.154,-0.255,-0.3315,-0.3175,-0.2865,-0.301,-0.2795,0.0055,0.1,0.1985
-0.5015,-0.409,0.093,0.4555,-0.297,-0.1585,-0.258,-0.335,-0.321,-0.29,-0.3035,-0.282,0.004,0.0985,0.198
-0.506,-0.4115,0.0945,0.459,-0.3005,-0.1585,-0.261,-0.339,-0.324,-0.2945,-0.306,-0.2855,0.0035,0.1015,0.1995
-0.51,-0.415,0.0955,0.463,-0.303,-0.16,-0.2635,-0.339,-0.3235,-0.2945,-0.307,-0.2845,0.0055,0.1,0.2
-0.5105,-0.4105,0.1005,0.4605,-0.3055,-0.1555,-0.259,-0.3355,-0.3175,-0.289,-0.301,-0.2795,0.007,0.101,0.2
-0.508,-0.408,0.1005,0.4585,-0.3045,-0.154,-0.2575,-0.332,-0.3145,-0.2845,-0.296,-0.2755,0.0095,0.1025,0.1995
-0.501,-0.4035,0.0985,0.4525,-0.2995,-0.153,-0.261,-0.3295,-0.31,-0.2795,-0.2915,-0.2715,0.015,0.105,0.198
-0.5,-0.406,0.095,0.453,-0.2975,-0.1555,-0.263,-0.3305,-0.308,-0.2765,-0.289,-0.27,0.018,0.105,0.197
-0.501,-0.4045,0.097,0.453,-0.2995,-0.154,-0.2665,-0.33,-0.304,-0.274,-0.2875,-0.2715,0.02,0.1075,0.1935
-0.5035,-0.4055,0.098,0.4545,-0.301,-0.1535,-0.2635,-0.3215,-0.2965,-0.269,-0.285,-0.271,0.023,0.106,0.193
-0.504,-0.411,0.0935,0.458,-0.299,-0.159,-0.256,-0.3085,-0.283,-0.2575,-0.2775,-0.265,0.028,0.103,0.1885
-0.496,-0.406,0.09,0.451,-0.293,-0.1585,-0.249,-0.294,-0.262,-0.241,-0.265,-0.259,0.036,0.1025,0.1805
-0.477,-0.4015,0.076,0.4395,-0.2765,-0.163,-0.244,-0.278,-0.243,-0.2245,-0.257,-0.2545,0.0445,0.098,0.174
-0.459,-0.397,0.0625,0.4285,-0.261,-0.1675,-0.2385,-0.26,-0.2185,-0.207,-0.2475,-0.252,0.0525,0.0935,0.165
-0.456,-0.3955,0.0615,0.426,-0.259,-0.167,-0.237,-0.2505,-0.2035,-0.1895,-0.2355,-0.246,0.0605,0.0935,0.1605
-0.4615,-0.3975,0.0645,0.43,-0.263,-0.167,-0.2435,-0.249,-0.1975,-0.182,-0.2285,-0.244,0.065,0.0875,0.165
-0.4705,-0.4095,0.0615,0.44,-0.266,-0.174,-0.2515,-0.252,-0.2005,-0.183,-0.226,-0.2455,0.069,0.0825,0.1755
-0.4685,-0.415,0.054,0.4425,-0.2615,-0.181,-0.2585,-0.2575,-0.2075,-0.181,-0.221,-0.2415,0.0725,0.083,0.188
-0.45,-0.415,0.0355,0.433,-0.243,-0.19,-0.265,-0.2635,-0.213,-0.183,-0.218,-0.242,0.072,0.072,0.1985
-0.437,-0.415,0.0225,0.4265,-0.23,-0.1965,-0.285,-0.282,-0.2285,-0.1855,-0.218,-0.244,0.075,0.069,0.205
-0.436,-0.415,0.021,0.4255,-0.2285,-0.1975,-0.3015,-0.289,-0.2245,-0.1725,-0.2095,-0.2405,0.0825,0.0715,0.2055
-0.434,-0.408,0.0265,0.4215,-0.2305,-0.191,-0.304,-0.2825,-0.205,-0.148,-0.1905,-0.23,0.094,0.078,0.2005
-0.4265,-0.3905,0.0365,0.409,-0.2315,-0.1775,-0.308,-0.2825,-0.193,-0.122,-0.1695,-0.2155,0.108,0.0855,0.195
-0.4115,-0.3715,0.0405,0.392,-0.226,-0.166,-0.322,-0.279,-0.174,-0.092,-0.1395,-0.197,0.1295,0.102,0.188
-0.391,-0.358,0.0335,0.375,-0.2125,-0.1625,-0.343,-0.287,-0.17,-0.072,-0.1095,-0.1775,0.1525,0.1165,0.1945
-0.3745,-0.3505,0.025,0.363,-0.1995,-0.163,-0.3705,-0.307,-0.1845,-0.065,-0.0865,-0.161,0.172,0.113,0.212
-0.3575,-0.335,0.023,0.3465,-0.19,-0.1565,-0.3965,-0.321,-0.195,-0.055,-0.061,-0.1415,0.1945,0.1185,0.2255
-0.3375,-0.324,0.0135,0.331,-0.1755,-0.1555,-0.415,-0.3205,-0.1915,-0.036,-0.024,-0.12,0.22,0.122,0.2375
-0.315,-0.3065,0.009,0.311,-0.162,-0.149,-0.4445,-0.322,-0.183,-0.009,0.0185,-0.096,0.2525,0.1335,0.2455
-0.2825,-0.2945,-0.0115,0.2885,-0.1355,-0.1535,-0.4865,-0.342,-0.2,0.0005,0.0565,-0.0705,0.2895,0.138,0.2725
-0.236,-0.281,-0.045,0.259,-0.0955,-0.1635,-0.5265,-0.3515,-0.2045,0.0225,0.1025,-0.041,0.332,0.14,0.2945
-0.196,-0.2435,-0.047,0.22,-0.0745,-0.1455,-0.5645,-0.3595,-0.192,0.0665,0.16,-0.001,0.3785,0.1705,0.2985
-0.1655,-0.1865,-0.021,0.176,-0.0725,-0.104,-0.6105,-0.3675,-0.162,0.1425,0.245,0.06,0.4415,0.214,0.292
-0.126,-0.126,0.0,0.1265,-0.063,-0.0635,-0.657,-0.367,-0.118,0.2315,0.3435,0.1285,0.5135,0.26,0.2805
-0.08,-0.065,0.0155,0.073,-0.0475,-0.025,-0.705,-0.373,-0.09,0.303,0.436,0.1935,0.5815,0.304,0.2755
-0.036,-0.0045,0.032,0.0205,-0.034,0.0135,-0.752,-0.373,-0.0505,0.384,0.5295,0.256,0.646,0.3415,0.262
0.008,0.046,0.0385,-0.0265,-0.0155,0.042,-0.803,-0.3845,-0.02,0.455,0.6125,0.3145,0.708,0.381,0.2535
