i,ii,iii,avr,avl,avf,v1,v2,v3,v4,v5,v6,vx,vy,vz
-1.5365,-1.5065,0.0295,1.5215,-0.783,-0.738,-0.5915,-0.5875,-0.5465,-0.5745,-0.568,-0.572,0.001,-0.0265,-0.0385
-1.544,-1.5115,0.032,1.5275,-0.7875,-0.7395,-0.5885,-0.5915,-0.549,-0.5785,-0.575,-0.577,-0.0025,-0.0225,-0.0385
-1.542,-1.514,0.028,1.528,-0.785,-0.743,-0.588,-0.592,-0.548,-0.578,-0.575,-0.576,-0.002,-0.02,-0.0405
-1.544,-1.5165,0.027,1.5305,-0.7855,-0.7445,-0.589,-0.5915,-0.5485,-0.5795,-0.575,-0.576,0.0015,-0.0185,-0.0395
-1.5515,-1.5185,0.0325,1.535,-0.7915,-0.743,-0.592,-0.598,-0.557,-0.581,-0.5755,-0.5765,0.0005,-0.0215,-0.0395
-1.5495,-1.5205,0.0285,1.535,-0.789,-0.7455,-0.5935,-0.5975,-0.5545,-0.582,-0.5785,-0.581,-0.0045,-0.0205,-0.0415
-1.546,-1.5165,0.029,1.5315,-0.7875,-0.7435,-0.591,-0.5905,-0.5475,-0.5805,-0.5765,-0.58,-0.0035,-0.0205,-0.044
-1.5555,-1.5205,0.0345,1.538,-0.795,-0.7425,-0.587,-0.593,-0.55,-0.5805,-0.575,-0.5755,-0.0025,-0.0175,-0.0455
-1.5605,-1.5265,0.033,1.5435,-0.7965,-0.7465,-0.5885,-0.593,-0.5535,-0.5815,-0.5775,-0.5785,-0.007,-0.013,-0.045
-1.549,-1.522,0.0265,1.5355,-0.7875,-0.748,-0.5895,-0.5915,-0.553,-0.58,-0.576,-0.579,-0.003,-0.024,-0.042
-1.5445,-1.516,0.0275,1.53,-0.786,-0.744,-0.588,-0.5895,-0.5485,-0.576,-0.572,-0.575,0.0,-0.0285,-0.044
-1.547,-1.516,0.031,1.5315,-0.7885,-0.7425,-0.59,-0.5865,-0.544,-0.572,-0.5695,-0.5715,0.0,-0.0245,-0.0485
-1.5365,-1.511,0.025,1.5235,-0.7805,-0.743,-0.5845,-0.5835,-0.5425,-0.5695,-0.568,-0.571,0.003,-0.027,-0.0485
-1.534,-1.512,0.021,1.523,-0.7775,-0.7455,-0.583,-0.588,-0.5455,-0.5685,-0.5665,-0.57,0.0045,-0.0315,-0.047
-1.5385,-1.5185,0.0195,1.5285,-0.779,-0.7495,-0.588,-0.592,-0.547,-0.574,-0.572,-0.5735,0.002,-0.0265,-0.0445
-1.5385,-1.515,0.023,1.527,-0.7805,-0.746,-0.586,-0.588,-0.5445,-0.5735,-0.5725,-0.5735,-0.0005,-0.022,-0.0465
-1.541,-1.5165,0.024,1.5285,-0.782,-0.746,-0.588,-0.5875,-0.545,-0.5715,-0.5705,-0.5725,-0.0005,-0.033,-0.047
-1.5375,-1.5145,0.023,1.526,-0.78,-0.7455,-0.5855,-0.5865,-0.5435,-0.571,-0.5695,-0.5735,-0.0025,-0.0305,-0.046
-1.5305,-1.508,0.022,1.5195,-0.776,-0.743,-0.5825,-0.5855,-0.5435,-0.571,-0.57,-0.5715,-0.001,-0.02,-0.045
-1.5305,-1.5095,0.0205,1.52,-0.7755,-0.744,-0.5835,-0.5865,-0.544,-0.572,-0.57,-0.5705,0.0005,-0.023,-0.042
-1.5315,-1.509,0.022,1.5205,-0.7765,-0.7435,-0.583,-0.585,-0.543,-0.5705,-0.5685,-0.5705,-0.0005,-0.0265,-0.0395
-1.526,-1.507,0.0185,1.5165,-0.772,-0.744,-0.5885,-0.584,-0.544,-0.5705,-0.568,-0.5705,-0.0005,-0.0305,-0.039
-1.5285,-1.508,0.02,1.5185,-0.774,-0.744,-0.584,-0.5825,-0.5425,-0.571,-0.5665,-0.57,-0.0015,-0.025,-0.0435
-1.536,-1.5095,0.026,1.523,-0.781,-0.7415,-0.5785,-0.5805,-0.543,-0.572,-0.57,-0.5745,-0.004,-0.0195,-0.0435
-1.5425,-1.5135,0.0285,1.528,-0.785,-0.742,-0.586,-0.586,-0.545,-0.573,-0.5715,-0.576,-0.007,-0.023,-0.0445
-1.545,-1.512,0.0325,1.5285,-0.7885,-0.7395,-0.5855,-0.5865,-0.5445,-0.5725,-0.5705,-0.575,-0.0095,-0.019,-0.048
-1.543,-1.5075,0.035,1.525,-0.7885,-0.736,-0.5835,-0.584,-0.544,-0.573,-0.571,-0.576,-0.0085,-0.019,-0.0485
-1.54,-1.51,0.0295,1.525,-0.7845,-0.74,-0.588,-0.587,-0.546,-0.5755,-0.572,-0.577,-0.0045,-0.0145,-0.0495
-1.534,-1.511,0.023,1.5225,-0.778,-0.7435,-0.5895,-0.588,-0.546,-0.5735,-0.571,-0.575,-0.003,-0.015,-0.048
-1.5405,-1.5145,0.0255,1.5275,-0.783,-0.7445,-0.587,-0.586,-0.547,-0.5745,-0.572,-0.5755,-0.0065,-0.0225,-0.0475
-1.548,-1.5155,0.032,1.532,-0.7895,-0.7415,-0.5835,-0.5845,-0.5465,-0.574,-0.572,-0.575,-0.0065,-0.022,-0.0505
-1.542,-1.511,0.0305,1.5265,-0.786,-0.7395,-0.583,-0.583,-0.5435,-0.5695,-0.567,-0.5705,-0.005,-0.018,-0.059
-1.534,-1.505,0.0285,1.5195,-0.781,-0.738,-0.584,-0.5805,-0.541,-0.567,-0.565,-0.5685,-0.0035,-0.0225,-0.064
-1.529,-1.503,0.0255,1.516,-0.777,-0.7385,-0.586,-0.5805,-0.541,-0.567,-0.565,-0.5675,0.0015,-0.0365,-0.063
-1.526,-1.5035,0.0225,1.5145,-0.774,-0.74,-0.5865,-0.576,-0.54,-0.566,-0.565,-0.569,0.002,-0.0365,-0.0615
-1.527,-1.5045,0.022,1.516,-0.7745,-0.741,-0.59,-0.591,-0.5455,-0.5685,-0.5665,-0.57,0.001,-0.0395,-0.0595
-1.527,-1.5045,0.022,1.5155,-0.7745,-0.741,-0.5905,-0.5925,-0.5465,-0.568,-0.5645,-0.567,0.003,-0.04,-0.055
-1.517,-1.494,0.0225,1.5055,-0.7695,-0.7355,-0.5865,-0.573,-0.537,-0.5605,-0.559,-0.5625,0.007,-0.0305,-0.0515
-1.522,-1.4945,0.0275,1.5085,-0.7745,-0.733,-0.587,-0.5795,-0.539,-0.564,-0.561,-0.5645,0.006,-0.028,-0.052
-1.528,-1.496,0.0315,1.512,-0.7795,-0.732,-0.5855,-0.58,-0.539,-0.5645,-0.561,-0.5645,0.0045,-0.031,-0.056
-1.533,-1.4975,0.035,1.515,-0.7835,-0.731,-0.586,-0.58,-0.539,-0.5635,-0.559,-0.564,0.0045,-0.03,-0.0555
-1.5385,-1.497,0.041,1.5175,-0.7895,-0.728,-0.589,-0.585,-0.5425,-0.5665,-0.56,-0.564,0.004,-0.0265,-0.051
-1.5295,-1.4935,0.035,1.5115,-0.782,-0.729,-0.59,-0.5835,-0.542,-0.566,-0.559,-0.5625,0.0065,-0.024,-0.045
-1.5275,-1.5015,0.026,1.5145,-0.7765,-0.7375,-0.591,-0.5835,-0.543,-0.567,-0.562,-0.5675,0.007,-0.0125,-0.038
-1.5315,-1.5015,0.03,1.5165,-0.7805,-0.7355,-0.5905,-0.584,-0.5425,-0.5675,-0.5605,-0.5645,0.0095,-0.0215,-0.034
-1.535,-1.502,0.033,1.5185,-0.784,-0.734,-0.5895,-0.5835,-0.54,-0.5685,-0.5605,-0.5615,0.01,-0.027,-0.0305
-1.534,-1.503,0.031,1.5185,-0.782,-0.736,-0.5935,-0.5855,-0.5415,-0.57,-0.5635,-0.565,0.008,-0.011,-0.0315
-1.5275,-1.5,0.027,1.514,-0.777,-0.736,-0.5905,-0.5855,-0.5415,-0.5705,-0.5625,-0.564,0.01,-0.0165,-0.0295
-1.524,-1.4995,0.024,1.512,-0.774,-0.7375,-0.585,-0.5825,-0.539,-0.568,-0.5605,-0.561,0.0095,-0.022,-0.026
-1.53,-1.5015,0.028,1.5155,-0.779,-0.7365,-0.5885,-0.5835,-0.5395,-0.569,-0.56,-0.558,0.0105,-0.0125,-0.026
-1.53,-1.5055,0.0245,1.518,-0.777,-0.7405,-0.592,-0.5855,-0.5425,-0.571,-0.5615,-0.5615,0.0095,-0.017,-0.025
-1.5245,-1.505,0.019,1.515,-0.7715,-0.743,-0.5875,-0.5805,-0.541,-0.5695,-0.561,-0.562,0.009,-0.0205,-0.026
-1.5265,-1.506,0.02,1.516,-0.773,-0.7425,-0.583,-0.5755,-0.537,-0.566,-0.559,-0.5595,0.009,-0.0195,-0.026
-1.529,-1.511,0.017,1.52,-0.7725,-0.747,-0.5885,-0.583,-0.5415,-0.5675,-0.562,-0.562,0.006,-0.0215,-0.0275
-1.5315,-1.516,0.0155,1.5235,-0.773,-0.75,-0.594,-0.588,-0.547,-0.5695,-0.5645,-0.5645,0.0055,-0.0235,-0.0275
-1.5265,-1.5125,0.0135,1.5195,-0.7695,-0.7495,-0.5935,-0.5845,-0.5445,-0.5675,-0.5635,-0.565,0.0065,-0.027,-0.03
-1.522,-1.5105,0.011,1.516,-0.7665,-0.7495,-0.5925,-0.585,-0.545,-0.57,-0.5645,-0.566,0.007,-0.028,-0.031
-1.5255,-1.5125,0.0125,1.519,-0.769,-0.7495,-0.592,-0.586,-0.5455,-0.571,-0.5655,-0.57,0.0045,-0.032,-0.0325
-1.521,-1.509,0.0115,1.515,-0.766,-0.7485,-0.593,-0.586,-0.5455,-0.5715,-0.566,-0.5705,0.005,-0.0315,-0.038
-1.5195,-1.5075,0.012,1.5135,-0.7655,-0.7475,-0.593,-0.5855,-0.545,-0.5725,-0.565,-0.567,0.006,-0.032,-0.041
-1.526,-1.506,0.0195,1.516,-0.7725,-0.743,-0.589,-0.582,-0.5425,-0.5705,-0.563,-0.566,0.0035,-0.0325,-0.0445
-1.5245,-1.5015,0.0225,1.513,-0.7735,-0.7395,-0.587,-0.58,-0.5385,-0.568,-0.56,-0.5635,0.005,-0.024,-0.0455
-1.5205,-1.498,0.022,1.509,-0.771,-0.7375,-0.5875,-0.577,-0.537,-0.566,-0.5565,-0.559,0.0085,-0.0195,-0.0495
-1.5255,-1.5015,0.023,1.5135,-0.774,-0.739,-0.5895,-0.5805,-0.541,-0.569,-0.5585,-0.5615,0.007,-0.0245,-0.052
-1.5345,-1.5085,0.0255,1.5215,-0.78,-0.741,-0.589,-0.583,-0.543,-0.57,-0.5595,-0.5635,0.006,-0.0295,-0.05
-1.5385,-1.5095,0.029,1.524,-0.7835,-0.74,-0.586,-0.5795,-0.5405,-0.5675,-0.5575,-0.561,0.0065,-0.029,-0.0495
-1.5425,-1.513,0.029,1.528,-0.7855,-0.742,-0.5885,-0.5815,-0.5445,-0.571,-0.5595,-0.5625,0.0055,-0.0215,-0.048
-1.5415,-1.515,0.026,1.528,-0.7835,-0.744,-0.5905,-0.5785,-0.5485,-0.576,-0.5615,-0.564,0.0065,-0.023,-0.0415
-1.5425,-1.5145,0.0275,1.5285,-0.785,-0.7435,-0.588,-0.586,-0.5445,-0.571,-0.558,-0.561,0.0065,-0.024,-0.0405
-1.5415,-1.5155,0.0255,1.5285,-0.783,-0.745,-0.5825,-0.5885,-0.5445,-0.568,-0.557,-0.5585,0.0085,-0.018,-0.0355
-1.537,-1.516,0.021,1.5265,-0.779,-0.7475,-0.5875,-0.5795,-0.544,-0.567,-0.5575,-0.5595,0.011,-0.021,-0.0295
-1.54,-1.5175,0.022,1.5285,-0.7805,-0.7475,-0.59,-0.58,-0.5435,-0.565,-0.556,-0.5565,0.0115,-0.021,-0.0325
-1.537,-1.5155,0.0205,1.5265,-0.7785,-0.747,-0.5865,-0.579,-0.5445,-0.5655,-0.556,-0.556,0.012,-0.0295,-0.0255
-1.5315,-1.5155,0.016,1.5235,-0.7735,-0.7495,-0.5885,-0.581,-0.5435,-0.5645,-0.556,-0.556,0.0145,-0.0365,-0.0195
-1.5295,-1.5165,0.013,1.523,-0.771,-0.7515,-0.5865,-0.5825,-0.5435,-0.5645,-0.5525,-0.552,0.0165,-0.03,-0.0185
-1.5295,-1.517,0.012,1.5235,-0.7705,-0.7525,-0.5885,-0.58,-0.5435,-0.5655,-0.5545,-0.555,0.0145,-0.035,-0.0145
-1.525,-1.518,0.0065,1.5215,-0.7655,-0.7555,-0.592,-0.5805,-0.5445,-0.5665,-0.557,-0.556,0.0155,-0.026,-0.01
-1.523,-1.513,0.0095,1.518,-0.766,-0.7515,-0.5915,-0.5775,-0.5435,-0.564,-0.554,-0.5545,0.0145,-0.015,-0.015
-1.524,-1.509,0.0145,1.5165,-0.769,-0.747,-0.5845,-0.579,-0.543,-0.564,-0.553,-0.554,0.014,-0.028,-0.0185
-1.5245,-1.511,0.0135,1.5175,-0.7685,-0.7485,-0.585,-0.5785,-0.544,-0.5645,-0.554,-0.556,0.0135,-0.0265,-0.019
-1.5185,-1.511,0.007,1.515,-0.7625,-0.752,-0.592,-0.578,-0.545,-0.566,-0.555,-0.5555,0.015,-0.0215,-0.02
-1.512,-1.507,0.0045,1.5095,-0.758,-0.751,-0.5915,-0.5805,-0.5435,-0.566,-0.5555,-0.554,0.0175,-0.0195,-0.021
-1.514,-1.503,0.011,1.5085,-0.762,-0.746,-0.5855,-0.5755,-0.5415,-0.565,-0.554,-0.554,0.0135,-0.0115,-0.0235
-1.51,-1.5055,0.004,1.508,-0.757,-0.7505,-0.5915,-0.5805,-0.5465,-0.568,-0.5555,-0.5545,0.015,-0.0105,-0.022
-1.5195,-1.51,0.009,1.5145,-0.764,-0.75,-0.6025,-0.59,-0.5515,-0.572,-0.5595,-0.5595,0.013,-0.0155,-0.0245
-1.5285,-1.5125,0.0155,1.5205,-0.7715,-0.748,-0.5965,-0.5885,-0.5525,-0.574,-0.56,-0.561,0.01,-0.024,-0.026
-1.5245,-1.5125,0.0115,1.5185,-0.7675,-0.75,-0.5885,-0.5805,-0.5475,-0.5705,-0.5595,-0.5605,0.0135,-0.023,-0.028
-1.525,-1.511,0.0135,1.518,-0.769,-0.7485,-0.593,-0.5825,-0.5475,-0.5715,-0.561,-0.561,0.0125,-0.02,-0.031
-1.519,-1.513,0.0055,1.516,-0.762,-0.7535,-0.6,-0.582,-0.548,-0.5715,-0.5605,-0.5585,0.015,-0.0295,-0.0335
-1.517,-1.51,0.0065,1.5135,-0.7615,-0.7515,-0.5915,-0.5775,-0.5455,-0.568,-0.559,-0.558,0.0195,-0.0335,-0.0345
-1.518,-1.508,0.0095,1.513,-0.7635,-0.749,-0.592,-0.586,-0.549,-0.571,-0.5605,-0.5595,0.017,-0.0295,-0.0345
-1.5185,-1.5075,0.0105,1.513,-0.764,-0.748,-0.5925,-0.579,-0.5465,-0.5695,-0.563,-0.5605,0.015,-0.028,-0.0385
-1.516,-1.5065,0.009,1.511,-0.7625,-0.7485,-0.5895,-0.5755,-0.5455,-0.5685,-0.5625,-0.558,0.018,-0.032,-0.038
-1.5115,-1.503,0.008,1.5075,-0.7595,-0.7475,-0.597,-0.583,-0.547,-0.5705,-0.563,-0.559,0.0165,-0.0345,-0.0365
-1.504,-1.4925,0.0115,1.4985,-0.7575,-0.7405,-0.5945,-0.582,-0.546,-0.5685,-0.5615,-0.5605,0.0125,-0.029,-0.0385
-1.5005,-1.4865,0.013,1.4935,-0.7565,-0.7365,-0.591,-0.581,-0.5435,-0.566,-0.5575,-0.5565,0.015,-0.027,-0.0415
-1.5115,-1.49,0.021,1.5005,-0.766,-0.734,-0.5905,-0.5785,-0.5425,-0.565,-0.557,-0.557,0.0105,-0.019,-0.0405
-1.516,-1.493,0.0225,1.5045,-0.769,-0.735,-0.5915,-0.5825,-0.5455,-0.5665,-0.5595,-0.56,0.006,-0.0135,-0.0335
-1.509,-1.4895,0.0185,1.4995,-0.7635,-0.7355,-0.59,-0.5825,-0.5435,-0.5665,-0.5575,-0.557,0.0085,-0.022,-0.0295
-1.5055,-1.4895,0.0155,1.4975,-0.7605,-0.737,-0.5855,-0.5755,-0.5385,-0.5635,-0.5565,-0.5555,0.0085,-0.0205,-0.0285
-1.509,-1.4935,0.015,1.5015,-0.7615,-0.739,-0.588,-0.579,-0.541,-0.5675,-0.5585,-0.558,0.008,-0.017,-0.028
-1.508,-1.4925,0.015,1.5,-0.761,-0.7385,-0.5865,-0.58,-0.542,-0.5675,-0.5575,-0.555,0.0105,-0.0135,-0.0285
-1.5025,-1.491,0.011,1.4965,-0.7565,-0.7395,-0.5835,-0.5775,-0.5395,-0.5665,-0.5565,-0.554,0.0115,-0.0135,-0.026
-1.5055,-1.493,0.012,1.499,-0.7585,-0.74,-0.59,-0.579,-0.541,-0.57,-0.5585,-0.5565,0.0095,-0.0245,-0.0285
-1.512,-1.4965,0.015,1.504,-0.763,-0.7405,-0.5895,-0.5795,-0.5425,-0.569,-0.5575,-0.5545,0.0105,-0.03,-0.0335
-1.5255,-1.503,0.022,1.5145,-0.7735,-0.7405,-0.585,-0.5775,-0.5415,-0.568,-0.556,-0.5525,0.008,-0.0215,-0.0415
-1.5355,-1.506,0.0285,1.5205,-0.782,-0.7385,-0.581,-0.576,-0.5405,-0.568,-0.5585,-0.5555,0.003,-0.018,-0.0485
-1.5235,-1.5045,0.0185,1.514,-0.7705,-0.7425,-0.583,-0.577,-0.54,-0.5675,-0.5585,-0.555,0.0085,-0.0275,-0.046
-1.526,-1.507,0.018,1.5165,-0.7715,-0.7445,-0.5875,-0.5765,-0.539,-0.5665,-0.558,-0.554,0.008,-0.0295,-0.0475
-1.5325,-1.5115,0.0205,1.522,-0.7765,-0.745,-0.5865,-0.582,-0.5445,-0.5715,-0.563,-0.56,0.003,-0.0335,-0.04
-1.5185,-1.5035,0.0145,1.511,-0.7665,-0.744,-0.583,-0.5785,-0.542,-0.568,-0.561,-0.5545,0.006,-0.031,-0.035
-1.5115,-1.4995,0.0115,1.5055,-0.761,-0.7435,-0.5805,-0.5765,-0.539,-0.5635,-0.558,-0.5515,0.0075,-0.0255,-0.034
-1.515,-1.505,0.0095,1.51,-0.762,-0.7475,-0.5795,-0.5765,-0.5395,-0.564,-0.559,-0.5565,0.004,-0.02,-0.029
-1.5165,-1.5045,0.012,1.5105,-0.764,-0.746,-0.576,-0.569,-0.5345,-0.559,-0.5545,-0.553,0.006,-0.0205,-0.0265
-1.515,-1.5035,0.011,1.509,-0.763,-0.746,-0.5805,-0.572,-0.537,-0.5605,-0.5555,-0.553,0.0065,-0.0375,-0.024
-1.5055,-1.5005,0.0045,1.503,-0.755,-0.7475,-0.589,-0.574,-0.537,-0.5605,-0.555,-0.551,0.0085,-0.038,-0.0265
-1.507,-1.5,0.006,1.5035,-0.7565,-0.7465,-0.5885,-0.572,-0.535,-0.556,-0.5525,-0.5485,0.0095,-0.018,-0.0285
-1.5145,-1.502,0.0115,1.5085,-0.7625,-0.745,-0.5845,-0.573,-0.5365,-0.5585,-0.554,-0.5525,0.004,-0.01,-0.032
-1.518,-1.5055,0.0125,1.512,-0.765,-0.7465,-0.583,-0.5765,-0.5405,-0.563,-0.559,-0.557,0.001,-0.0215,-0.032
-1.519,-1.5065,0.012,1.5125,-0.765,-0.747,-0.5805,-0.576,-0.5415,-0.5625,-0.5605,-0.5575,0.0015,-0.0215,-0.036
-1.504,-1.5005,0.003,1.502,-0.753,-0.7485,-0.5845,-0.573,-0.539,-0.56,-0.558,-0.5545,0.0085,-0.02,-0.035
-1.5165,-1.508,0.008,1.512,-0.762,-0.7495,-0.5875,-0.577,-0.543,-0.5635,-0.562,-0.5585,0.0045,-0.0165,-0.028
-1.5155,-1.502,0.013,1.509,-0.764,-0.744,-0.582,-0.576,-0.542,-0.5605,-0.557,-0.5565,0.0045,-0.0185,-0.025
-1.4975,-1.491,0.006,1.494,-0.7515,-0.742,-0.584,-0.573,-0.538,-0.558,-0.553,-0.5525,0.0125,-0.0315,-0.0205
-1.5015,-1.4955,0.0055,1.4985,-0.7535,-0.745,-0.59,-0.5765,-0.5395,-0.5605,-0.5565,-0.556,0.0115,-0.0265,-0.023
-1.502,-1.496,0.006,1.4985,-0.754,-0.7445,-0.588,-0.5785,-0.542,-0.561,-0.555,-0.5555,0.0125,-0.0265,-0.023
-1.5085,-1.497,0.011,1.5025,-0.7595,-0.743,-0.588,-0.5805,-0.544,-0.5645,-0.556,-0.5555,0.012,-0.0255,-0.019
-1.5085,-1.4965,0.0115,1.5025,-0.76,-0.7425,-0.5885,-0.5805,-0.543,-0.561,-0.553,-0.553,0.0145,-0.025,-0.0165
-1.5135,-1.4985,0.0145,1.506,-0.7635,-0.742,-0.588,-0.5785,-0.5445,-0.563,-0.555,-0.556,0.0135,-0.0215,-0.016
-1.515,-1.498,0.0165,1.5065,-0.7655,-0.7405,-0.585,-0.5815,-0.5465,-0.565,-0.5565,-0.5585,0.012,-0.018,-0.02
-1.5015,-1.4905,0.0105,1.496,-0.7555,-0.7395,-0.583,-0.5775,-0.5415,-0.562,-0.555,-0.5565,0.016,-0.0285,-0.0195
-1.4905,-1.489,0.001,1.49,-0.7455,-0.744,-0.588,-0.5765,-0.5415,-0.5635,-0.557,-0.5575,0.0185,-0.032,-0.0165
-1.501,-1.4945,0.006,1.498,-0.7535,-0.744,-0.588,-0.5805,-0.5445,-0.5635,-0.5565,-0.555,0.0185,-0.036,-0.018
-1.5015,-1.4985,0.0025,1.5,-0.752,-0.748,-0.5845,-0.578,-0.5445,-0.566,-0.56,-0.5595,0.0155,-0.0215,-0.0165
-1.4955,-1.5,-0.005,1.4975,-0.745,-0.752,-0.5895,-0.5775,-0.543,-0.566,-0.561,-0.562,0.0165,-0.014,-0.0165
-1.504,-1.4945,0.009,1.499,-0.756,-0.7425,-0.592,-0.582,-0.545,-0.5675,-0.5615,-0.5555,0.0195,-0.0235,-0.02
-1.4965,-1.4935,0.0025,1.495,-0.7495,-0.745,-0.5935,-0.5905,-0.551,-0.5745,-0.567,-0.5585,0.0195,-0.0185,-0.0155
-1.499,-1.494,0.005,1.4965,-0.7515,-0.744,-0.59,-0.58,-0.544,-0.571,-0.5675,-0.562,0.0155,-0.0245,-0.018
-1.504,-1.49,0.0135,1.497,-0.7585,-0.738,-0.584,-0.5715,-0.541,-0.568,-0.566,-0.5595,0.0135,-0.0225,-0.0225
-1.496,-1.485,0.0105,1.4905,-0.753,-0.737,-0.5845,-0.577,-0.543,-0.5675,-0.564,-0.558,0.014,-0.018,-0.0275
-1.4945,-1.476,0.0185,1.4855,-0.7565,-0.7285,-0.583,-0.576,-0.539,-0.5655,-0.5615,-0.558,0.013,-0.0195,-0.0355
-1.4975,-1.4775,0.0195,1.4875,-0.7585,-0.729,-0.584,-0.576,-0.538,-0.5665,-0.5635,-0.5615,0.0105,-0.0225,-0.0365
-1.4935,-1.472,0.021,1.483,-0.757,-0.7255,-0.584,-0.574,-0.5355,-0.565,-0.5605,-0.559,0.012,-0.0255,-0.0405
-1.499,-1.469,0.0295,1.484,-0.764,-0.7195,-0.5845,-0.576,-0.5355,-0.5645,-0.5595,-0.5595,0.0085,-0.01,-0.044
-1.4995,-1.467,0.032,1.4835,-0.7655,-0.7175,-0.581,-0.572,-0.531,-0.5595,-0.5565,-0.5575,0.006,-0.002,-0.0465
-1.4925,-1.459,0.033,1.4755,-0.7625,-0.7125,-0.58,-0.573,-0.5295,-0.556,-0.5515,-0.553,0.0065,-0.0045,-0.0475
-1.49,-1.456,0.0335,1.473,-0.7615,-0.711,-0.5825,-0.574,-0.529,-0.556,-0.5495,-0.5545,0.007,-0.005,-0.048
-1.4815,-1.449,0.032,1.465,-0.7565,-0.708,-0.581,-0.566,-0.521,-0.547,-0.543,-0.547,0.0125,0.01,-0.0525
-1.48,-1.4455,0.034,1.4625,-0.7565,-0.7055,-0.58,-0.5665,-0.519,-0.5445,-0.5415,-0.5455,0.0135,0.026,-0.0545
-1.474,-1.436,0.0375,1.455,-0.7555,-0.699,-0.5765,-0.5665,-0.5165,-0.5425,-0.538,-0.543,0.0145,0.0235,-0.058
-1.479,-1.434,0.044,1.4565,-0.7615,-0.6945,-0.58,-0.5675,-0.515,-0.5365,-0.5315,-0.538,0.0155,0.024,-0.0625
-1.481,-1.433,0.0475,1.457,-0.764,-0.6925,-0.579,-0.561,-0.5115,-0.5335,-0.529,-0.536,0.016,0.0215,-0.065
-1.4795,-1.429,0.0495,1.4545,-0.7645,-0.6895,-0.5715,-0.555,-0.509,-0.5325,-0.5275,-0.535,0.013,0.0265,-0.068
-1.481,-1.431,0.049,1.456,-0.765,-0.691,-0.5715,-0.5585,-0.51,-0.532,-0.527,-0.5375,0.0105,0.0345,-0.067
-1.4715,-1.4245,0.0465,1.448,-0.7585,-0.6885,-0.5735,-0.558,-0.5095,-0.531,-0.5255,-0.5345,0.011,0.03,-0.064
-1.4705,-1.4245,0.0455,1.4475,-0.7575,-0.6895,-0.573,-0.558,-0.51,-0.532,-0.5265,-0.533,0.0095,0.031,-0.062
-1.4595,-1.417,0.042,1.4385,-0.7505,-0.687,-0.569,-0.556,-0.5065,-0.5285,-0.523,-0.528,0.011,0.0425,-0.064
-1.4645,-1.411,0.053,1.438,-0.759,-0.6785,-0.5675,-0.556,-0.506,-0.5275,-0.519,-0.5265,0.008,0.045,-0.0665
-1.471,-1.41,0.0605,1.4405,-0.7655,-0.6745,-0.568,-0.559,-0.5065,-0.528,-0.5195,-0.5255,0.0065,0.041,-0.068
-1.462,-1.4025,0.059,1.4325,-0.7605,-0.6715,-0.5655,-0.5535,-0.5015,-0.5235,-0.5145,-0.519,0.0095,0.0485,-0.0675
-1.456,-1.3985,0.057,1.427,-0.7565,-0.6705,-0.564,-0.552,-0.496,-0.5185,-0.5085,-0.5145,0.015,0.0585,-0.063
-1.446,-1.3925,0.053,1.4195,-0.7495,-0.6695,-0.561,-0.5425,-0.493,-0.516,-0.5045,-0.5095,0.02,0.055,-0.0605
-1.4535,-1.398,0.055,1.4255,-0.754,-0.6715,-0.556,-0.5405,-0.49,-0.515,-0.5035,-0.512,0.0175,0.0545,-0.064
-1.4595,-1.402,0.057,1.4305,-0.758,-0.672,-0.559,-0.549,-0.489,-0.5135,-0.5035,-0.512,0.0205,0.059,-0.0665
-1.4505,-1.395,0.055,1.423,-0.7525,-0.67,-0.557,-0.543,-0.4865,-0.511,-0.5,-0.5075,0.0265,0.051,-0.065
-1.4505,-1.3955,0.0545,1.423,-0.7525,-0.67,-0.5535,-0.5385,-0.4835,-0.509,-0.496,-0.5045,0.031,0.051,-0.0655
-1.459,-1.403,0.056,1.431,-0.757,-0.673,-0.5525,-0.5385,-0.486,-0.5115,-0.4985,-0.507,0.029,0.0545,-0.0655
-1.4545,-1.4045,0.0495,1.4295,-0.7515,-0.6775,-0.5485,-0.535,-0.4845,-0.51,-0.499,-0.5075,0.0305,0.0425,-0.062
-1.4555,-1.41,0.045,1.4325,-0.75,-0.682,-0.549,-0.5335,-0.4855,-0.51,-0.499,-0.508,0.0355,0.0315,-0.0545
-1.4495,-1.4145,0.034,1.432,-0.7415,-0.69,-0.5365,-0.528,-0.4845,-0.51,-0.4995,-0.51,0.038,0.0225,-0.0505
-1.4515,-1.418,0.033,1.4345,-0.742,-0.692,-0.5355,-0.526,-0.4805,-0.505,-0.494,-0.508,0.0405,0.0215,-0.058
-1.4525,-1.416,0.036,1.4345,-0.744,-0.69,-0.5405,-0.528,-0.4805,-0.5035,-0.494,-0.509,0.036,0.0295,-0.0605
-1.445,-1.411,0.0335,1.428,-0.739,-0.6885,-0.534,-0.5275,-0.48,-0.5025,-0.4945,-0.509,0.0345,0.034,-0.065
-1.446,-1.412,0.0335,1.429,-0.7395,-0.689,-0.5375,-0.528,-0.48,-0.5035,-0.4955,-0.509,0.0365,0.041,-0.0705
-1.436,-1.4065,0.029,1.421,-0.732,-0.6885,-0.5385,-0.5325,-0.482,-0.5045,-0.498,-0.5095,0.039,0.0365,-0.066
-1.444,-1.4125,0.031,1.4285,-0.7375,-0.6905,-0.541,-0.5345,-0.486,-0.5095,-0.501,-0.512,0.0365,0.0215,-0.063
-1.4445,-1.418,0.026,1.431,-0.735,-0.6955,-0.544,-0.532,-0.4865,-0.5095,-0.502,-0.514,0.0355,0.015,-0.057
-1.4375,-1.416,0.021,1.4265,-0.729,-0.697,-0.547,-0.5355,-0.4865,-0.51,-0.5025,-0.514,0.0425,0.0205,-0.0545
-1.443,-1.4175,0.025,1.43,-0.7335,-0.696,-0.5605,-0.544,-0.4915,-0.516,-0.507,-0.5145,0.046,0.027,-0.053
-1.4385,-1.404,0.034,1.4215,-0.736,-0.6845,-0.582,-0.552,-0.493,-0.514,-0.5045,-0.512,0.0465,0.03,-0.0505
-1.4265,-1.383,0.043,1.4045,-0.7345,-0.6695,-0.6,-0.5585,-0.4935,-0.513,-0.5,-0.509,0.0505,0.0355,-0.05
-1.417,-1.3695,0.047,1.3935,-0.732,-0.661,-0.617,-0.5735,-0.503,-0.518,-0.5015,-0.509,0.055,0.0605,-0.042
-1.4185,-1.3555,0.062,1.387,-0.74,-0.6465,-0.622,-0.5735,-0.5015,-0.5145,-0.497,-0.505,0.057,0.085,-0.042
-1.42,-1.3485,0.071,1.3845,-0.745,-0.6385,-0.6215,-0.568,-0.4975,-0.512,-0.4935,-0.502,0.058,0.078,-0.0415
-1.4145,-1.3515,0.0625,1.383,-0.738,-0.6445,-0.629,-0.5745,-0.5,-0.5125,-0.4935,-0.5025,0.062,0.0775,-0.0405
-1.4125,-1.348,0.064,1.38,-0.738,-0.642,-0.633,-0.5735,-0.497,-0.509,-0.486,-0.495,0.0685,0.081,-0.0475
-1.4125,-1.346,0.066,1.379,-0.739,-0.64,-0.6385,-0.577,-0.4965,-0.508,-0.483,-0.4925,0.0725,0.086,-0.046
-1.4075,-1.3515,0.0555,1.3795,-0.731,-0.648,-0.642,-0.5765,-0.4945,-0.5055,-0.4825,-0.491,0.0785,0.083,-0.036
-1.401,-1.351,0.0495,1.376,-0.725,-0.6505,-0.648,-0.5765,-0.4975,-0.5055,-0.483,-0.4905,0.084,0.08,-0.031
-1.3925,-1.342,0.0495,1.367,-0.721,-0.646,-0.6515,-0.5775,-0.4985,-0.5055,-0.484,-0.4895,0.0845,0.08,-0.033
-1.3935,-1.341,0.052,1.367,-0.7225,-0.6445,-0.6485,-0.576,-0.4955,-0.5025,-0.4805,-0.4855,0.083,0.066,-0.0315
-1.393,-1.342,0.0505,1.3675,-0.7215,-0.6455,-0.6495,-0.577,-0.4955,-0.5015,-0.479,-0.4845,0.082,0.0735,-0.0245
-1.388,-1.338,0.0495,1.363,-0.7185,-0.644,-0.6475,-0.571,-0.49,-0.497,-0.4745,-0.479,0.0855,0.0845,-0.018
-1.3965,-1.3445,0.0515,1.3705,-0.724,-0.646,-0.65,-0.5775,-0.4945,-0.498,-0.4765,-0.48,0.083,0.087,-0.0145
-1.3975,-1.349,0.0475,1.3735,-0.7225,-0.6505,-0.6545,-0.584,-0.5025,-0.5025,-0.481,-0.483,0.081,0.098,-0.0115
-1.396,-1.3485,0.047,1.372,-0.721,-0.6505,-0.6595,-0.583,-0.5015,-0.5015,-0.481,-0.4825,0.0795,0.1,-0.0085
-1.389,-1.3405,0.048,1.365,-0.7185,-0.646,-0.6585,-0.581,-0.5,-0.4985,-0.478,-0.48,0.078,0.098,-0.005
-1.3915,-1.3385,0.0525,1.365,-0.722,-0.643,-0.6565,-0.5805,-0.501,-0.5015,-0.479,-0.48,0.077,0.113,-0.003
-1.4045,-1.351,0.0525,1.3775,-0.728,-0.649,-0.662,-0.591,-0.508,-0.5085,-0.4855,-0.4865,0.0705,0.1065,-0.0055
-1.3965,-1.354,0.0415,1.375,-0.719,-0.656,-0.658,-0.5905,-0.51,-0.511,-0.4875,-0.488,0.07,0.0795,-0.0045
-1.402,-1.359,0.0425,1.3805,-0.7225,-0.658,-0.658,-0.5865,-0.51,-0.5115,-0.4895,-0.49,0.0695,0.076,-0.0065
-1.4035,-1.3705,0.032,1.387,-0.7175,-0.669,-0.652,-0.5855,-0.5125,-0.5165,-0.4955,-0.496,0.067,0.07,-0.0075
-1.393,-1.38,0.0125,1.3865,-0.7025,-0.6835,-0.6485,-0.585,-0.516,-0.5225,-0.5025,-0.5055,0.067,0.046,0.0055
-1.3975,-1.383,0.014,1.3905,-0.7055,-0.6845,-0.646,-0.582,-0.517,-0.526,-0.507,-0.515,0.065,0.04,0.0085
-1.3945,-1.3855,0.0085,1.39,-0.701,-0.6885,-0.64,-0.5775,-0.5145,-0.526,-0.5085,-0.5195,0.0675,0.037,0.01
-1.377,-1.3845,-0.0085,1.381,-0.684,-0.696,-0.6415,-0.5745,-0.5135,-0.524,-0.5075,-0.522,0.076,0.0225,0.0235
-1.375,-1.389,-0.0145,1.382,-0.68,-0.7015,-0.6445,-0.578,-0.5175,-0.527,-0.5095,-0.5255,0.077,0.027,0.029
-1.3835,-1.396,-0.013,1.39,-0.685,-0.7045,-0.653,-0.5835,-0.522,-0.529,-0.5105,-0.5245,0.08,0.0285,0.032
-1.3835,-1.395,-0.012,1.389,-0.6855,-0.703,-0.659,-0.59,-0.5255,-0.5325,-0.5105,-0.5195,0.089,0.0355,0.038
-1.3835,-1.3905,-0.0075,1.387,-0.688,-0.6985,-0.6605,-0.59,-0.5245,-0.534,-0.5095,-0.5175,0.0905,0.045,0.038
-1.3815,-1.39,-0.009,1.386,-0.686,-0.699,-0.6645,-0.596,-0.5255,-0.5335,-0.5085,-0.513,0.094,0.0365,0.0395
-1.396,-1.398,-0.0025,1.397,-0.6965,-0.7,-0.658,-0.5965,-0.5255,-0.5315,-0.5065,-0.5105,0.0915,0.0465,0.0305
-1.404,-1.394,0.0095,1.3985,-0.7065,-0.692,-0.645,-0.5735,-0.51,-0.5205,-0.499,-0.5065,0.0895,0.0605,0.014
-1.383,-1.381,0.0015,1.382,-0.6925,-0.6895,-0.644,-0.5715,-0.503,-0.511,-0.4905,-0.497,0.1,0.054,0.0085
-1.3765,-1.3805,-0.0045,1.3785,-0.686,-0.692,-0.6425,-0.5725,-0.5035,-0.5085,-0.489,-0.4925,0.105,0.04,0.009
-1.3825,-1.3945,-0.0125,1.3885,-0.685,-0.7035,-0.6425,-0.5765,-0.51,-0.5155,-0.498,-0.4995,0.1005,0.026,0.0195
-1.3845,-1.4065,-0.022,1.3955,-0.681,-0.714,-0.635,-0.569,-0.507,-0.514,-0.499,-0.502,0.097,0.015,0.02
-1.3965,-1.4235,-0.0275,1.41,-0.6845,-0.7255,-0.621,-0.5615,-0.5035,-0.517,-0.5035,-0.5055,0.0935,-0.0015,0.0155
-1.4105,-1.436,-0.026,1.423,-0.692,-0.7305,-0.6135,-0.559,-0.502,-0.5175,-0.5055,-0.5105,0.0885,-0.0095,0.009
-1.417,-1.4405,-0.024,1.4285,-0.6965,-0.732,-0.609,-0.56,-0.505,-0.52,-0.507,-0.513,0.0825,-0.006,-0.003
-1.429,-1.454,-0.0255,1.4415,-0.7015,-0.7395,-0.611,-0.5745,-0.52,-0.5335,-0.517,-0.5215,0.074,-0.0235,-0.0005
-1.4435,-1.4575,-0.0145,1.4505,-0.714,-0.7355,-0.61,-0.5705,-0.519,-0.534,-0.516,-0.522,0.069,-0.019,-0.0075
-1.4475,-1.4625,-0.015,1.455,-0.716,-0.7385,-0.608,-0.5705,-0.5195,-0.537,-0.519,-0.525,0.0645,-0.0105,-0.0145
-1.451,-1.4705,-0.02,1.4605,-0.7155,-0.745,-0.605,-0.5705,-0.523,-0.5425,-0.524,-0.5315,0.0595,-0.0205,-0.0155
-1.4555,-1.474,-0.019,1.465,-0.718,-0.7465,-0.6045,-0.5665,-0.524,-0.547,-0.5295,-0.5395,0.055,-0.032,-0.0055
-1.4655,-1.485,-0.02,1.475,-0.7225,-0.752,-0.6025,-0.5785,-0.535,-0.557,-0.5375,-0.5455,0.049,-0.0445,0.0075
-1.48,-1.4875,-0.008,1.4835,-0.736,-0.7475,-0.598,-0.5845,-0.539,-0.561,-0.539,-0.5435,0.045,-0.032,-0.0055
-1.489,-1.4925,-0.004,1.4905,-0.7425,-0.7475,-0.5875,-0.5695,-0.53,-0.554,-0.537,-0.5455,0.039,-0.035,-0.0115
-1.502,-1.5075,-0.006,1.5045,-0.7475,-0.7565,-0.584,-0.5715,-0.5335,-0.5585,-0.544,-0.554,0.0315,-0.0485,-0.0055
-1.4905,-1.5055,-0.0155,1.498,-0.737,-0.76,-0.585,-0.573,-0.5335,-0.5595,-0.5485,-0.559,0.0295,-0.045,0.0005
-1.485,-1.507,-0.0225,1.496,-0.731,-0.7645,-0.5785,-0.564,-0.5295,-0.555,-0.5465,-0.557,0.028,-0.032,0.005
-1.5115,-1.5165,-0.0055,1.514,-0.753,-0.7605,-0.586,-0.566,-0.532,-0.5575,-0.5525,-0.5605,0.018,-0.033,0.002
-1.508,-1.5135,-0.006,1.511,-0.751,-0.7595,-0.577,-0.567,-0.53,-0.554,-0.5535,-0.5615,0.012,-0.0495,-0.0075
-1.4995,-1.508,-0.009,1.5035,-0.745,-0.758,-0.56,-0.5585,-0.521,-0.5465,-0.5475,-0.556,0.0165,-0.051,-0.019
-1.499,-1.5025,-0.0035,1.501,-0.7475,-0.7525,-0.5595,-0.5475,-0.515,-0.539,-0.5425,-0.554,0.018,-0.0445,-0.029
-1.4945,-1.5005,-0.007,1.4975,-0.7435,-0.7535,-0.5565,-0.5405,-0.52,-0.5435,-0.545,-0.553,0.017,-0.042,-0.0275
-1.4965,-1.495,0.001,1.4955,-0.7485,-0.7465,-0.5635,-0.548,-0.518,-0.541,-0.541,-0.547,0.0195,-0.047,-0.0225
-1.4935,-1.4915,0.0015,1.4925,-0.7475,-0.7445,-0.572,-0.5605,-0.517,-0.535,-0.537,-0.5445,0.024,-0.0515,-0.021
-1.5025,-1.506,-0.004,1.5045,-0.749,-0.755,-0.573,-0.5585,-0.523,-0.5445,-0.5445,-0.5505,0.021,-0.053,-0.0165
-1.505,-1.514,-0.0095,1.5095,-0.7475,-0.7615,-0.5745,-0.562,-0.529,-0.552,-0.5505,-0.554,0.019,-0.0455,-0.0085
-1.499,-1.5125,-0.014,1.5055,-0.742,-0.763,-0.5785,-0.562,-0.531,-0.5545,-0.553,-0.558,0.0195,-0.043,0.0035
-1.499,-1.5205,-0.022,1.5095,-0.738,-0.771,-0.5855,-0.5665,-0.5355,-0.5585,-0.5565,-0.562,0.017,-0.054,0.0105
-1.5005,-1.526,-0.0255,1.513,-0.7375,-0.7755,-0.588,-0.574,-0.537,-0.5595,-0.5555,-0.562,0.017,-0.053,0.0115
-1.514,-1.5355,-0.0225,1.5245,-0.7455,-0.7785,-0.582,-0.569,-0.5375,-0.563,-0.559,-0.5655,0.0115,-0.055,0.0155
-1.509,-1.539,-0.0305,1.524,-0.739,-0.7845,-0.5815,-0.568,-0.5425,-0.5695,-0.5665,-0.569,0.007,-0.0615,0.019
-1.51,-1.5425,-0.033,1.526,-0.738,-0.7875,-0.578,-0.5655,-0.541,-0.5715,-0.57,-0.57,0.0025,-0.0565,0.0165
-1.51,-1.5465,-0.037,1.5285,-0.7365,-0.7915,-0.5735,-0.5625,-0.54,-0.5725,-0.572,-0.573,-0.0035,-0.0645,0.0145
-1.5015,-1.539,-0.038,1.52,-0.7315,-0.788,-0.575,-0.561,-0.5385,-0.5705,-0.5715,-0.5725,-0.0045,-0.0735,0.0165
-1.509,-1.546,-0.0375,1.5275,-0.7355,-0.792,-0.575,-0.568,-0.543,-0.572,-0.5735,-0.573,-0.007,-0.0685,0.014
-1.5095,-1.55,-0.0405,1.53,-0.7345,-0.795,-0.5755,-0.565,-0.541,-0.5725,-0.5745,-0.573,-0.0045,-0.0665,0.0085
-1.519,-1.553,-0.0345,1.536,-0.742,-0.7935,-0.573,-0.5575,-0.536,-0.5695,-0.5735,-0.572,-0.0035,-0.0685,0.0065
-1.52,-1.5535,-0.034,1.537,-0.743,-0.7935,-0.5715,-0.5615,-0.5385,-0.5675,-0.5735,-0.5725,-0.0035,-0.079,0.006
-1.51,-1.543,-0.034,1.5265,-0.7375,-0.7885,-0.568,-0.561,-0.539,-0.5675,-0.572,-0.572,-0.004,-0.077,0.0005
-1.5175,-1.5505,-0.0335,1.534,-0.7415,-0.7915,-0.57,-0.564,-0.543,-0.569,-0.572,-0.573,-0.0075,-0.074,0.0
-1.5095,-1.551,-0.042,1.5305,-0.7335,-0.796,-0.576,-0.5645,-0.541,-0.568,-0.572,-0.573,-0.004,-0.08,0.002
-1.5055,-1.548,-0.043,1.5265,-0.731,-0.7955,-0.571,-0.561,-0.5395,-0.5655,-0.568,-0.568,0.003,-0.0775,0.002
-1.507,-1.552,-0.0455,1.529,-0.7305,-0.7985,-0.565,-0.5605,-0.538,-0.5635,-0.566,-0.5675,0.0015,-0.081,0.004
-1.4995,-1.545,-0.046,1.5225,-0.727,-0.795,-0.5655,-0.557,-0.537,-0.562,-0.566,-0.568,0.001,-0.077,0.007
-1.5055,-1.547,-0.0425,1.5265,-0.7315,-0.7945,-0.568,-0.556,-0.536,-0.56,-0.564,-0.5655,0.0025,-0.0755,0.007
-1.505,-1.552,-0.047,1.5285,-0.729,-0.7995,-0.5705,-0.564,-0.538,-0.5605,-0.562,-0.5675,0.003,-0.0775,0.005
-1.501,-1.549,-0.0485,1.525,-0.726,-0.7985,-0.565,-0.5585,-0.5385,-0.5605,-0.562,-0.5695,0.0025,-0.072,0.007
-1.4895,-1.5405,-0.052,1.515,-0.7185,-0.796,-0.554,-0.546,-0.531,-0.5555,-0.557,-0.568,0.0035,-0.068,0.0055
-1.483,-1.534,-0.0515,1.5085,-0.7155,-0.7925,-0.556,-0.546,-0.527,-0.5505,-0.5505,-0.562,0.009,-0.0665,0.0025
-1.487,-1.536,-0.0495,1.5115,-0.7185,-0.7925,-0.573,-0.553,-0.533,-0.5545,-0.5525,-0.5655,0.009,-0.0685,0.008
-1.479,-1.5315,-0.053,1.505,-0.7125,-0.792,-0.5775,-0.553,-0.5325,-0.5545,-0.5515,-0.566,0.0115,-0.069,0.0105
-1.473,-1.526,-0.053,1.4995,-0.71,-0.7895,-0.5735,-0.556,-0.5325,-0.5545,-0.55,-0.5625,0.014,-0.067,0.0095
-1.4865,-1.531,-0.045,1.509,-0.7205,-0.788,-0.572,-0.5595,-0.5385,-0.5585,-0.552,-0.566,0.0085,-0.0645,0.0055
-1.496,-1.5325,-0.0375,1.514,-0.729,-0.7845,-0.57,-0.5555,-0.5325,-0.5545,-0.551,-0.5655,0.006,-0.07,-0.0005
-1.4875,-1.5295,-0.042,1.5085,-0.7225,-0.7855,-0.5705,-0.558,-0.5325,-0.5525,-0.55,-0.5645,0.011,-0.0735,-0.0035
-1.5015,-1.5405,-0.0395,1.521,-0.731,-0.7895,-0.566,-0.5595,-0.5355,-0.5525,-0.5515,-0.5625,0.009,-0.074,-0.0095
-1.508,-1.5395,-0.032,1.5235,-0.7375,-0.7855,-0.561,-0.555,-0.528,-0.548,-0.5495,-0.5615,0.0045,-0.066,-0.0155
-1.492,-1.5255,-0.034,1.5085,-0.7285,-0.7795,-0.5605,-0.5475,-0.5265,-0.545,-0.546,-0.5585,0.011,-0.0645,-0.015
-1.498,-1.5245,-0.0265,1.511,-0.7355,-0.7755,-0.563,-0.5475,-0.528,-0.5465,-0.548,-0.559,0.0105,-0.079,-0.0145
-1.495,-1.526,-0.031,1.5105,-0.732,-0.778,-0.5645,-0.5535,-0.528,-0.547,-0.548,-0.559,0.014,-0.0775,-0.0075
-1.4985,-1.533,-0.035,1.516,-0.7315,-0.784,-0.568,-0.5595,-0.533,-0.5505,-0.5515,-0.5605,0.018,-0.076,0.001
-1.5075,-1.537,-0.03,1.5225,-0.7385,-0.7835,-0.5675,-0.5585,-0.5355,-0.552,-0.5555,-0.565,0.0145,-0.075,0.0055
-1.4895,-1.5295,-0.041,1.5095,-0.724,-0.785,-0.5665,-0.556,-0.532,-0.549,-0.554,-0.5615,0.0205,-0.069,0.008
-1.487,-1.526,-0.04,1.5065,-0.7235,-0.783,-0.568,-0.561,-0.5325,-0.5495,-0.5545,-0.5635,0.022,-0.0775,0.009
-1.4765,-1.5225,-0.0465,1.4995,-0.715,-0.7845,-0.572,-0.5665,-0.5375,-0.5525,-0.556,-0.566,0.0215,-0.084,0.015
-1.485,-1.53,-0.0455,1.5075,-0.7195,-0.7875,-0.573,-0.56,-0.5375,-0.5565,-0.558,-0.569,0.0195,-0.077,0.015
-1.4875,-1.526,-0.0395,1.5065,-0.7235,-0.7825,-0.5695,-0.5605,-0.5335,-0.5545,-0.5565,-0.5675,0.023,-0.071,0.0115
-1.475,-1.516,-0.0415,1.4955,-0.7165,-0.7785,-0.573,-0.563,-0.5345,-0.5525,-0.5545,-0.5635,0.0225,-0.0695,0.008
-1.478,-1.5155,-0.038,1.497,-0.72,-0.7765,-0.5675,-0.556,-0.5305,-0.5485,-0.551,-0.5635,0.0235,-0.067,0.0055
-1.4695,-1.511,-0.042,1.49,-0.7135,-0.776,-0.562,-0.551,-0.5215,-0.5415,-0.545,-0.5595,0.0275,-0.067,0.002
-1.494,-1.5295,-0.036,1.512,-0.7285,-0.7825,-0.5585,-0.5475,-0.5205,-0.5415,-0.5465,-0.562,0.015,-0.073,-0.0045
-1.489,-1.5365,-0.048,1.5125,-0.72,-0.792,-0.5535,-0.5465,-0.5175,-0.5395,-0.5465,-0.562,0.019,-0.085,-0.003
-1.4825,-1.533,-0.051,1.508,-0.7155,-0.7915,-0.549,-0.5345,-0.504,-0.5305,-0.5405,-0.5595,0.0215,-0.0815,-0.011
-1.496,-1.534,-0.0385,1.515,-0.7285,-0.786,-0.5325,-0.51,-0.4855,-0.515,-0.531,-0.558,0.017,-0.0795,-0.0265
-1.4955,-1.535,-0.04,1.515,-0.7275,-0.7875,-0.523,-0.502,-0.475,-0.505,-0.5285,-0.5625,0.0145,-0.0835,-0.035
-1.505,-1.5455,-0.041,1.525,-0.732,-0.793,-0.506,-0.485,-0.458,-0.4925,-0.5265,-0.5685,0.008,-0.077,-0.0445
-1.4905,-1.5405,-0.0505,1.5155,-0.7195,-0.7955,-0.4895,-0.458,-0.4275,-0.4655,-0.511,-0.5635,0.0135,-0.0915,-0.052
-1.4835,-1.538,-0.055,1.5105,-0.714,-0.7965,-0.475,-0.436,-0.398,-0.439,-0.493,-0.5585,0.016,-0.0955,-0.0685
-1.4815,-1.5485,-0.0675,1.515,-0.707,-0.8075,-0.4485,-0.4025,-0.3645,-0.4105,-0.481,-0.5555,0.0175,-0.094,-0.0855
-1.4665,-1.55,-0.0845,1.508,-0.6905,-0.817,-0.432,-0.3685,-0.324,-0.375,-0.4635,-0.5505,0.0265,-0.1065,-0.0955
-1.4605,-1.5465,-0.087,1.5035,-0.6865,-0.8165,-0.4125,-0.331,-0.281,-0.335,-0.4385,-0.5425,0.0385,-0.124,-0.111
-1.4515,-1.556,-0.1045,1.504,-0.6735,-0.83,-0.388,-0.2945,-0.2385,-0.297,-0.4175,-0.5375,0.051,-0.1375,-0.127
-1.434,-1.5515,-0.118,1.4925,-0.658,-0.8345,-0.371,-0.2585,-0.1905,-0.2485,-0.3835,-0.5215,0.0725,-0.1265,-0.1425
-1.4335,-1.542,-0.109,1.488,-0.662,-0.8255,-0.361,-0.227,-0.1415,-0.1945,-0.339,-0.4965,0.1,-0.122,-0.167
-1.4205,-1.54,-0.12,1.48,-0.65,-0.8295,-0.3525,-0.204,-0.0995,-0.1455,-0.302,-0.4795,0.124,-0.123,-0.184
-1.401,-1.5435,-0.143,1.4725,-0.629,-0.843,-0.339,-0.1645,-0.0485,-0.092,-0.266,-0.4685,0.147,-0.136,-0.1955
-1.397,-1.5475,-0.151,1.4725,-0.6225,-0.849,-0.3315,-0.1285,0.008,-0.03,-0.221,-0.4515,0.1735,-0.148,-0.2135
-1.379,-1.538,-0.1595,1.4585,-0.61,-0.8485,-0.306,-0.0845,0.075,0.0455,-0.1575,-0.4165,0.2105,-0.1405,-0.239
-1.365,-1.548,-0.1835,1.4565,-0.591,-0.8655,-0.2745,-0.035,0.144,0.1195,-0.102,-0.3925,0.2425,-0.145,-0.2595
-1.3495,-1.5615,-0.2125,1.455,-0.5685,-0.8865,-0.2535,0.034,0.2285,0.2045,-0.043,-0.3705,0.2775,-0.1565,-0.281
-1.3295,-1.572,-0.243,1.4505,-0.5435,-0.9075,-0.2175,0.1115,0.321,0.292,0.015,-0.3465,0.312,-0.186,-0.307
-1.3085,-1.5805,-0.2725,1.4445,-0.518,-0.926,-0.18,0.183,0.4065,0.373,0.0665,-0.329,0.3405,-0.2125,-0.33
-1.295,-1.5855,-0.291,1.4405,-0.502,-0.9385,-0.1515,0.2495,0.4895,0.4555,0.1255,-0.306,0.3705,-0.218,-0.3625
-1.2865,-1.6015,-0.3155,1.444,-0.486,-0.958,-0.1245,0.291,0.554,0.524,0.1735,-0.289,0.3925,-0.2315,-0.3885
-1.279,-1.6135,-0.3345,1.4465,-0.4725,-0.974,-0.095,0.3685,0.642,0.6135,0.2365,-0.266,0.423,-0.2385,-0.4155
-1.2705,-1.628,-0.358,1.449,-0.4565,-0.9925,-0.068,0.434,0.725,0.7005,0.302,-0.239,0.4575,-0.262,-0.444
-1.245,-1.6215,-0.3775,1.4335,-0.434,-0.9995,-0.0475,0.475,0.7915,0.7765,0.364,-0.2105,0.4925,-0.278,-0.4655
-1.2335,-1.6145,-0.3815,1.424,-0.426,-0.998,-0.0275,0.5265,0.871,0.8645,0.433,-0.177,0.528,-0.267,-0.494
-1.232,-1.6185,-0.387,1.425,-0.423,-1.0025,0.003,0.5835,0.943,0.9345,0.4785,-0.1655,0.5445,-0.2675,-0.5245
-1.225,-1.632,-0.407,1.4285,-0.4095,-1.019,0.0385,0.6415,1.007,0.99,0.5085,-0.167,0.5475,-0.281,-0.546
-1.2135,-1.658,-0.4445,1.4355,-0.385,-1.051,0.0625,0.685,1.0545,1.0275,0.5275,-0.1675,0.5555,-0.301,-0.548
-1.2135,-1.67,-0.457,1.442,-0.3785,-1.063,0.0775,0.701,1.0695,1.0385,0.5315,-0.1695,0.556,-0.3135,-0.546
-1.2245,-1.6835,-0.4595,1.454,-0.3825,-1.0715,0.103,0.7165,1.0735,1.0315,0.518,-0.1805,0.541,-0.3295,-0.5485
-1.2385,-1.698,-0.46,1.468,-0.3895,-1.079,0.1185,0.7235,1.0505,0.9865,0.4745,-0.208,0.5115,-0.3275,-0.544
-1.259,-1.7075,-0.449,1.4835,-0.4055,-1.078,0.133,0.71,1.0035,0.924,0.4215,-0.24,0.469,-0.319,-0.5365
-1.2855,-1.709,-0.4245,1.4975,-0.431,-1.0665,0.1315,0.6605,0.9355,0.85,0.3625,-0.271,0.4245,-0.3175,-0.5305
-1.313,-1.707,-0.3945,1.51,-0.4595,-1.0505,0.123,0.594,0.85,0.7695,0.306,-0.2975,0.3825,-0.3125,-0.5225
-1.3305,-1.709,-0.379,1.52,-0.476,-1.044,0.114,0.5355,0.7765,0.699,0.2555,-0.3215,0.347,-0.3145,-0.512
-1.3595,-1.7035,-0.3445,1.5315,-0.5075,-1.024,0.081,0.4455,0.682,0.6085,0.1995,-0.342,0.3095,-0.296,-0.4995
-1.411,-1.726,-0.3155,1.5685,-0.548,-1.0205,0.0835,0.3755,0.559,0.474,0.098,-0.394,0.2345,-0.297,-0.4775
-1.4725,-1.783,-0.311,1.6275,-0.581,-1.0465,0.0995,0.297,0.413,0.2885,-0.063,-0.484,0.122,-0.338,-0.4385
-1.534,-1.819,-0.2855,1.6765,-0.624,-1.052,0.0885,0.194,0.248,0.0985,-0.2115,-0.5595,0.022,-0.353,-0.396
-1.583,-1.8365,-0.254,1.71,-0.6645,-1.045,0.0535,0.0925,0.0975,-0.057,-0.3185,-0.609,-0.047,-0.35,-0.3505
-1.6125,-1.853,-0.241,1.733,-0.6855,-1.047,0.033,0.0175,-0.007,-0.1685,-0.3975,-0.645,-0.1025,-0.355,-0.322
-1.6405,-1.8845,-0.2445,1.7625,-0.6975,-1.0645,0.0245,-0.0415,-0.1045,-0.279,-0.483,-0.688,-0.158,-0.367,-0.2875
-1.6695,-1.9195,-0.2505,1.7945,-0.709,-1.085,0.0085,-0.1105,-0.2155,-0.4005,-0.5745,-0.735,-0.212,-0.3875,-0.2385
-1.691,-1.9335,-0.2425,1.8125,-0.7245,-1.088,-0.0185,-0.168,-0.3015,-0.4905,-0.633,-0.76,-0.248,-0.396,-0.205
-1.7005,-1.936,-0.2355,1.8185,-0.7325,-1.0855,-0.0385,-0.2115,-0.369,-0.5595,-0.68,-0.7775,-0.275,-0.388,-0.1745
-1.702,-1.9345,-0.233,1.8185,-0.7345,-1.0835,-0.0615,-0.2605,-0.4515,-0.652,-0.7505,-0.8085,-0.3125,-0.393,-0.1365
-1.707,-1.938,-0.2315,1.823,-0.7375,-1.0845,-0.1115,-0.336,-0.5605,-0.7685,-0.8345,-0.841,-0.3485,-0.4095,-0.0795
-1.717,-1.9495,-0.2325,1.8335,-0.742,-1.091,-0.139,-0.4045,-0.656,-0.8625,-0.904,-0.871,-0.3785,-0.4115,-0.023
-1.7245,-1.9575,-0.233,1.8415,-0.746,-1.095,-0.152,-0.4435,-0.702,-0.9055,-0.9425,-0.89,-0.3935,-0.412,0.01
-1.7315,-1.961,-0.2295,1.8465,-0.751,-1.095,-0.1765,-0.457,-0.711,-0.918,-0.9645,-0.901,-0.3965,-0.4065,0.0285
-1.7425,-1.966,-0.223,1.8545,-0.76,-1.0945,-0.182,-0.454,-0.715,-0.9325,-0.9945,-0.925,-0.4155,-0.405,0.038
-1.734,-1.956,-0.222,1.845,-0.756,-1.0885,-0.1795,-0.463,-0.721,-0.942,-1.013,-0.9355,-0.4255,-0.4065,0.0465
-1.729,-1.951,-0.222,1.8405,-0.7535,-1.0865,-0.1825,-0.4695,-0.721,-0.9455,-1.0235,-0.9405,-0.4265,-0.397,0.053
-1.7195,-1.935,-0.2155,1.8275,-0.752,-1.075,-0.173,-0.4475,-0.7035,-0.933,-1.023,-0.9415,-0.425,-0.3755,0.047
-1.704,-1.907,-0.203,1.806,-0.7505,-1.055,-0.185,-0.4535,-0.7015,-0.9205,-1.01,-0.931,-0.4115,-0.351,0.042
-1.707,-1.9005,-0.193,1.804,-0.757,-1.0465,-0.198,-0.469,-0.7045,-0.917,-1.0,-0.9205,-0.401,-0.34,0.0405
-1.699,-1.8755,-0.1765,1.7875,-0.7615,-1.026,-0.2005,-0.4625,-0.6865,-0.899,-0.98,-0.8985,-0.382,-0.322,0.025
-1.684,-1.855,-0.171,1.77,-0.7565,-1.013,-0.203,-0.461,-0.678,-0.882,-0.9605,-0.879,-0.363,-0.3015,0.013
-1.6675,-1.848,-0.181,1.7575,-0.743,-1.014,-0.197,-0.4525,-0.656,-0.858,-0.938,-0.863,-0.341,-0.2985,0.003
-1.656,-1.839,-0.1835,1.748,-0.736,-1.011,-0.198,-0.444,-0.634,-0.8345,-0.914,-0.843,-0.318,-0.299,-0.009
-1.6365,-1.832,-0.1955,1.7345,-0.7205,-1.0135,-0.205,-0.4525,-0.64,-0.8355,-0.9085,-0.8295,-0.304,-0.2975,0.001
-1.629,-1.8195,-0.191,1.7245,-0.719,-1.005,-0.199,-0.4475,-0.6475,-0.845,-0.9095,-0.8235,-0.3015,-0.285,0.0115
-1.644,-1.8225,-0.1795,1.7335,-0.732,-1.001,-0.185,-0.437,-0.649,-0.847,-0.907,-0.817,-0.3055,-0.276,0.009
-1.6395,-1.8205,-0.1815,1.73,-0.729,-1.0005,-0.178,-0.4345,-0.643,-0.8405,-0.9025,-0.8115,-0.3025,-0.271,0.0045
-1.635,-1.815,-0.18,1.725,-0.7275,-0.997,-0.1755,-0.438,-0.6455,-0.838,-0.896,-0.804,-0.296,-0.2645,0.0075
-1.622,-1.8075,-0.186,1.7145,-0.7175,-0.9965,-0.177,-0.45,-0.6555,-0.8395,-0.886,-0.7845,-0.28,-0.268,0.0145
-1.589,-1.7945,-0.206,1.692,-0.6915,-1.0,-0.185,-0.459,-0.666,-0.844,-0.8805,-0.7715,-0.2645,-0.26,0.025
-1.577,-1.791,-0.2145,1.684,-0.681,-1.0025,-0.193,-0.4795,-0.688,-0.8585,-0.883,-0.7665,-0.258,-0.2485,0.04
-1.585,-1.7825,-0.198,1.6835,-0.6935,-0.99,-0.1815,-0.4835,-0.6965,-0.862,-0.8775,-0.759,-0.2565,-0.242,0.0405
-1.576,-1.7695,-0.1945,1.673,-0.6905,-0.982,-0.1725,-0.4785,-0.699,-0.8615,-0.868,-0.746,-0.244,-0.232,0.0455
-1.577,-1.772,-0.1955,1.6745,-0.6905,-0.9835,-0.17,-0.487,-0.7085,-0.8685,-0.8665,-0.737,-0.2335,-0.22,0.052
-1.574,-1.7645,-0.1905,1.6695,-0.6915,-0.9775,-0.162,-0.4805,-0.7025,-0.864,-0.859,-0.731,-0.2295,-0.2145,0.0485
-1.565,-1.754,-0.1895,1.6595,-0.6875,-0.9715,-0.157,-0.4755,-0.7025,-0.865,-0.856,-0.727,-0.222,-0.2145,0.0555
-1.577,-1.7635,-0.187,1.6705,-0.695,-0.975,-0.1365,-0.4715,-0.7015,-0.8655,-0.8595,-0.734,-0.2275,-0.2185,0.056
-1.5765,-1.769,-0.193,1.6725,-0.6915,-0.9805,-0.124,-0.471,-0.6985,-0.8595,-0.857,-0.7375,-0.232,-0.2275,0.051
-1.5885,-1.779,-0.191,1.684,-0.6985,-0.985,-0.116,-0.4825,-0.7115,-0.8685,-0.8645,-0.7465,-0.2435,-0.233,0.0495
-1.608,-1.7865,-0.179,1.6975,-0.7145,-0.9825,-0.104,-0.487,-0.7175,-0.877,-0.8745,-0.7605,-0.263,-0.2345,0.04
-1.625,-1.8005,-0.1755,1.713,-0.7245,-0.988,-0.099,-0.4965,-0.7285,-0.888,-0.885,-0.769,-0.274,-0.2375,0.0415
-1.63,-1.8025,-0.173,1.7165,-0.728,-0.9875,-0.077,-0.4925,-0.7275,-0.888,-0.885,-0.7695,-0.276,-0.241,0.0385
-1.6315,-1.8,-0.169,1.7155,-0.731,-0.984,-0.073,-0.489,-0.723,-0.8825,-0.883,-0.7715,-0.2815,-0.2435,0.029
-1.6385,-1.797,-0.1585,1.7175,-0.74,-0.9775,-0.0665,-0.499,-0.7305,-0.887,-0.8855,-0.7745,-0.287,-0.2465,0.031
-1.635,-1.7965,-0.162,1.7155,-0.7365,-0.979,-0.056,-0.506,-0.74,-0.896,-0.8925,-0.7825,-0.293,-0.243,0.0395
-1.6465,-1.8145,-0.1685,1.7305,-0.7385,-0.9915,-0.0455,-0.5075,-0.7475,-0.907,-0.9085,-0.8015,-0.3135,-0.249,0.0455
-1.67,-1.823,-0.1535,1.7465,-0.758,-0.988,-0.014,-0.496,-0.741,-0.9045,-0.917,-0.8215,-0.3405,-0.258,0.0345
-1.695,-1.8325,-0.1375,1.7645,-0.779,-0.985,0.0115,-0.488,-0.734,-0.8985,-0.92,-0.839,-0.362,-0.2495,0.0225
-1.7115,-1.8375,-0.1265,1.7745,-0.7925,-0.9815,0.034,-0.4765,-0.7235,-0.8895,-0.917,-0.844,-0.3705,-0.2445,0.013
-1.711,-1.8415,-0.1305,1.7765,-0.79,-0.986,0.0495,-0.4685,-0.712,-0.8775,-0.912,-0.8505,-0.3745,-0.252,0.007
-1.706,-1.8345,-0.1285,1.7705,-0.7885,-0.9815,0.061,-0.462,-0.7,-0.861,-0.8975,-0.847,-0.3695,-0.2545,-0.005
-1.7065,-1.8225,-0.116,1.765,-0.7955,-0.969,0.077,-0.449,-0.6865,-0.8485,-0.8825,-0.8315,-0.3605,-0.249,-0.025
-1.7165,-1.82,-0.1035,1.7685,-0.8065,-0.9615,0.094,-0.4535,-0.6875,-0.8465,-0.879,-0.829,-0.362,-0.242,-0.0365
-1.7195,-1.81,-0.0905,1.765,-0.8145,-0.95,0.092,-0.458,-0.692,-0.844,-0.8745,-0.827,-0.366,-0.2295,-0.049
-1.719,-1.8,-0.081,1.76,-0.819,-0.9405,0.1165,-0.446,-0.682,-0.834,-0.8665,-0.822,-0.367,-0.23,-0.064
-1.717,-1.795,-0.078,1.7565,-0.8195,-0.9365,0.1355,-0.436,-0.675,-0.829,-0.8605,-0.822,-0.365,-0.234,-0.068
-1.719,-1.79,-0.071,1.755,-0.824,-0.93,0.1455,-0.426,-0.668,-0.8225,-0.855,-0.821,-0.3625,-0.2185,-0.0845
-1.736,-1.7795,-0.0435,1.758,-0.846,-0.911,0.1935,-0.395,-0.6395,-0.798,-0.837,-0.814,-0.3635,-0.1955,-0.1225
-1.733,-1.7615,-0.0285,1.7475,-0.8525,-0.8945,0.217,-0.3765,-0.62,-0.778,-0.8185,-0.804,-0.363,-0.1845,-0.1485
-1.7425,-1.7535,-0.011,1.748,-0.8655,-0.882,0.239,-0.3685,-0.6085,-0.767,-0.81,-0.7995,-0.3665,-0.185,-0.1715
-1.757,-1.7515,0.005,1.7545,-0.881,-0.873,0.262,-0.3545,-0.6005,-0.762,-0.8075,-0.801,-0.375,-0.1915,-0.1915
-1.7555,-1.744,0.0115,1.75,-0.8835,-0.866,0.274,-0.357,-0.6015,-0.7595,-0.803,-0.7985,-0.3785,-0.192,-0.206
-1.7565,-1.735,0.0215,1.746,-0.889,-0.857,0.264,-0.3615,-0.604,-0.756,-0.7965,-0.793,-0.375,-0.1705,-0.211
-1.7495,-1.728,0.0215,1.739,-0.8855,-0.853,0.2315,-0.3785,-0.618,-0.762,-0.7955,-0.7895,-0.37,-0.155,-0.1985
-1.734,-1.719,0.015,1.7265,-0.8745,-0.8515,0.2015,-0.401,-0.637,-0.7715,-0.7975,-0.7865,-0.3635,-0.1615,-0.1805
-1.7285,-1.7135,0.0145,1.721,-0.8715,-0.849,0.1545,-0.43,-0.65,-0.773,-0.7955,-0.7815,-0.3555,-0.1625,-0.169
-1.74,-1.713,0.027,1.7265,-0.8835,-0.8425,0.099,-0.468,-0.662,-0.7715,-0.7905,-0.779,-0.3525,-0.153,-0.164
-1.727,-1.696,0.031,1.712,-0.879,-0.8325,0.043,-0.501,-0.6765,-0.7765,-0.788,-0.775,-0.346,-0.149,-0.151
-1.7045,-1.676,0.0285,1.6905,-0.8665,-0.8235,-0.0235,-0.5335,-0.6895,-0.779,-0.782,-0.7645,-0.3355,-0.1375,-0.1425
-1.695,-1.661,0.034,1.678,-0.8645,-0.813,-0.083,-0.563,-0.703,-0.7795,-0.776,-0.755,-0.33,-0.1225,-0.134
-1.691,-1.643,0.048,1.667,-0.8695,-0.797,-0.1255,-0.587,-0.711,-0.778,-0.766,-0.7455,-0.324,-0.1135,-0.126
-1.676,-1.6285,0.047,1.6525,-0.861,-0.7905,-0.176,-0.6075,-0.719,-0.7735,-0.7575,-0.7355,-0.3125,-0.115,-0.112
-1.671,-1.622,0.048,1.6465,-0.859,-0.787,-0.2355,-0.629,-0.73,-0.779,-0.7585,-0.732,-0.3025,-0.1105,-0.092
-1.675,-1.6225,0.052,1.649,-0.8635,-0.785,-0.2775,-0.644,-0.7355,-0.7835,-0.7565,-0.728,-0.293,-0.1045,-0.0825
-1.6455,-1.6055,0.0395,1.6255,-0.842,-0.783,-0.3075,-0.6505,-0.733,-0.7775,-0.7515,-0.7205,-0.279,-0.1065,-0.0695
-1.633,-1.5985,0.0345,1.6155,-0.8335,-0.7815,-0.331,-0.648,-0.7315,-0.7755,-0.753,-0.7195,-0.2695,-0.105,-0.06
-1.625,-1.6005,0.024,1.6125,-0.8245,-0.788,-0.359,-0.66,-0.7415,-0.779,-0.749,-0.7135,-0.2485,-0.121,-0.036
-1.6075,-1.593,0.014,1.6,-0.8105,-0.7895,-0.3965,-0.6695,-0.742,-0.774,-0.738,-0.701,-0.22,-0.128,-0.009
-1.611,-1.5915,0.019,1.601,-0.815,-0.786,-0.4055,-0.6545,-0.73,-0.7625,-0.726,-0.6925,-0.208,-0.1165,0.0015
-1.603,-1.5805,0.0225,1.5915,-0.8125,-0.7785,-0.411,-0.649,-0.722,-0.753,-0.715,-0.683,-0.195,-0.1065,0.013
-1.581,-1.567,0.013,1.574,-0.797,-0.7765,-0.4335,-0.6515,-0.7165,-0.744,-0.705,-0.672,-0.174,-0.097,0.025
-1.5705,-1.563,0.007,1.567,-0.7885,-0.778,-0.4535,-0.653,-0.7095,-0.734,-0.6955,-0.6635,-0.156,-0.093,0.0375
-1.5685,-1.5555,0.0125,1.562,-0.7905,-0.771,-0.468,-0.6475,-0.699,-0.7185,-0.681,-0.6515,-0.1385,-0.083,0.0395
-1.551,-1.538,0.0125,1.5445,-0.7815,-0.7625,-0.491,-0.643,-0.6875,-0.7015,-0.666,-0.6385,-0.1205,-0.0725,0.0435
-1.521,-1.509,0.0115,1.515,-0.766,-0.7485,-0.52,-0.649,-0.678,-0.685,-0.6505,-0.626,-0.104,-0.0575,0.0465
-1.5155,-1.494,0.021,1.5045,-0.768,-0.736,-0.528,-0.6435,-0.666,-0.6715,-0.6375,-0.617,-0.093,-0.041,0.0405
-1.514,-1.4905,0.0225,1.502,-0.768,-0.734,-0.5455,-0.64,-0.6585,-0.666,-0.636,-0.6155,-0.0855,-0.0405,0.042
-1.5085,-1.485,0.023,1.4965,-0.7655,-0.7305,-0.5615,-0.6445,-0.6555,-0.661,-0.632,-0.612,-0.076,-0.041,0.0405
-1.5115,-1.485,0.026,1.4985,-0.7685,-0.729,-0.5725,-0.6475,-0.6565,-0.661,-0.6315,-0.613,-0.0715,-0.0325,0.0395
-1.503,-1.4795,0.023,1.491,-0.7625,-0.728,-0.5715,-0.652,-0.6565,-0.6575,-0.629,-0.6115,-0.0655,-0.0355,0.0425
-1.4945,-1.47,0.024,1.482,-0.759,-0.7225,-0.575,-0.6445,-0.65,-0.6475,-0.619,-0.6055,-0.058,-0.057,0.039
-1.4855,-1.465,0.02,1.475,-0.7525,-0.722,-0.5865,-0.6385,-0.646,-0.642,-0.614,-0.604,-0.054,-0.0575,0.039
-1.484,-1.4655,0.0185,1.4745,-0.751,-0.723,-0.5785,-0.6495,-0.649,-0.6435,-0.613,-0.603,-0.051,-0.0565,0.0435
-1.469,-1.4525,0.016,1.461,-0.7425,-0.718,-0.5835,-0.647,-0.646,-0.6425,-0.6075,-0.5965,-0.046,-0.055,0.0445
-1.468,-1.4485,0.019,1.458,-0.743,-0.7145,-0.582,-0.639,-0.6415,-0.639,-0.6045,-0.594,-0.0435,-0.0385,0.043
-1.4855,-1.46,0.025,1.4725,-0.755,-0.7175,-0.5845,-0.647,-0.6455,-0.6415,-0.6085,-0.6,-0.046,-0.044,0.046
-1.4785,-1.4555,0.023,1.467,-0.7505,-0.716,-0.595,-0.6485,-0.648,-0.6415,-0.6075,-0.599,-0.0435,-0.0435,0.048
-1.492,-1.463,0.0285,1.4775,-0.76,-0.717,-0.5965,-0.656,-0.6535,-0.6455,-0.6115,-0.6015,-0.0455,-0.0345,0.0475
-1.4935,-1.462,0.031,1.478,-0.762,-0.715,-0.596,-0.658,-0.6525,-0.646,-0.61,-0.6025,-0.0465,-0.039,0.044
-1.4735,-1.448,0.025,1.4605,-0.749,-0.711,-0.592,-0.6435,-0.648,-0.646,-0.6085,-0.5965,-0.0435,-0.0515,0.044
-1.4685,-1.4465,0.0215,1.4575,-0.745,-0.7125,-0.5935,-0.6435,-0.645,-0.6435,-0.6075,-0.595,-0.0425,-0.0555,0.0455
-1.474,-1.4475,0.026,1.461,-0.75,-0.7105,-0.594,-0.649,-0.644,-0.6405,-0.606,-0.598,-0.045,-0.051,0.039
-1.48,-1.45,0.0295,1.465,-0.7545,-0.71,-0.593,-0.6455,-0.644,-0.641,-0.607,-0.6005,-0.0495,-0.048,0.037
-1.476,-1.448,0.0275,1.462,-0.752,-0.71,-0.5975,-0.644,-0.6425,-0.639,-0.6035,-0.599,-0.0475,-0.0485,0.0365
-1.482,-1.454,0.028,1.468,-0.755,-0.7125,-0.594,-0.646,-0.646,-0.643,-0.607,-0.602,-0.0505,-0.05,0.0355
-1.485,-1.456,0.0285,1.4705,-0.7565,-0.7135,-0.5925,-0.6495,-0.643,-0.637,-0.6045,-0.6,-0.0505,-0.0465,0.034
-1.4735,-1.449,0.024,1.4615,-0.7485,-0.712,-0.599,-0.651,-0.64,-0.6335,-0.6005,-0.5955,-0.0465,-0.0515,0.0345
-1.4715,-1.4525,0.019,1.462,-0.745,-0.7165,-0.5995,-0.6465,-0.64,-0.6355,-0.6,-0.5945,-0.0435,-0.0535,0.0415
-1.467,-1.4485,0.018,1.4575,-0.742,-0.715,-0.607,-0.65,-0.64,-0.6345,-0.5975,-0.589,-0.034,-0.048,0.047
-1.4615,-1.446,0.0155,1.454,-0.7385,-0.715,-0.6085,-0.654,-0.642,-0.6345,-0.597,-0.5865,-0.0285,-0.049,0.0545
-1.4555,-1.441,0.014,1.448,-0.734,-0.7135,-0.604,-0.6465,-0.638,-0.629,-0.5925,-0.5785,-0.022,-0.051,0.056
-1.455,-1.435,0.0195,1.445,-0.737,-0.7075,-0.6,-0.644,-0.635,-0.6275,-0.59,-0.573,-0.021,-0.0505,0.0535
-1.461,-1.4445,0.016,1.4525,-0.738,-0.714,-0.604,-0.6475,-0.6375,-0.6335,-0.5945,-0.58,-0.027,-0.0505,0.0555
-1.4505,-1.44,0.0105,1.4455,-0.73,-0.7145,-0.6055,-0.6485,-0.6365,-0.6305,-0.589,-0.5745,-0.0225,-0.054,0.053
-1.452,-1.439,0.0125,1.4455,-0.732,-0.713,-0.6,-0.6475,-0.6365,-0.6305,-0.5885,-0.573,-0.023,-0.056,0.055
-1.4615,-1.4465,0.0145,1.454,-0.738,-0.7155,-0.6105,-0.649,-0.638,-0.6335,-0.5915,-0.575,-0.0225,-0.058,0.0605
-1.457,-1.4425,0.014,1.45,-0.7355,-0.714,-0.6095,-0.6485,-0.6365,-0.6315,-0.588,-0.571,-0.0155,-0.0565,0.061
-1.451,-1.4395,0.011,1.4455,-0.731,-0.714,-0.606,-0.6485,-0.6365,-0.631,-0.586,-0.569,-0.0125,-0.0495,0.059
-1.4495,-1.4335,0.0155,1.4415,-0.7325,-0.7085,-0.613,-0.6525,-0.637,-0.6305,-0.5845,-0.566,-0.0105,-0.055,0.0595
-1.4545,-1.434,0.02,1.4445,-0.737,-0.707,-0.6085,-0.6465,-0.635,-0.632,-0.5845,-0.565,-0.0105,-0.057,0.0555
-1.4595,-1.437,0.022,1.448,-0.7405,-0.707,-0.6075,-0.6505,-0.635,-0.631,-0.5825,-0.562,-0.0095,-0.0515,0.052
-1.4635,-1.4365,0.0265,1.45,-0.745,-0.705,-0.6175,-0.657,-0.6385,-0.634,-0.584,-0.5635,-0.01,-0.054,0.051
-1.4615,-1.4365,0.0245,1.449,-0.743,-0.7055,-0.6105,-0.651,-0.6365,-0.6335,-0.582,-0.5595,-0.0075,-0.0485,0.0515
-1.4545,-1.433,0.021,1.4435,-0.7375,-0.7055,-0.61,-0.653,-0.6355,-0.63,-0.5795,-0.556,-0.0055,-0.0465,0.0565
-1.45,-1.4315,0.0175,1.441,-0.7335,-0.7065,-0.62,-0.645,-0.6305,-0.6285,-0.5795,-0.557,-0.005,-0.0545,0.057
-1.4495,-1.4345,0.0145,1.4425,-0.732,-0.71,-0.613,-0.646,-0.631,-0.6275,-0.5785,-0.558,-0.0045,-0.0505,0.0545
-1.4565,-1.4405,0.015,1.4485,-0.7355,-0.7125,-0.619,-0.652,-0.632,-0.627,-0.5795,-0.558,-0.006,-0.046,0.0545
-1.4505,-1.438,0.012,1.4445,-0.731,-0.7125,-0.616,-0.6425,-0.6265,-0.622,-0.5765,-0.555,-0.002,-0.051,0.0585
-1.458,-1.4415,0.016,1.45,-0.737,-0.7125,-0.6145,-0.6455,-0.6295,-0.624,-0.5785,-0.558,-0.0035,-0.0485,0.061
-1.4615,-1.44,0.021,1.4505,-0.741,-0.7095,-0.6195,-0.649,-0.631,-0.624,-0.579,-0.5605,-0.007,-0.045,0.0605
-1.448,-1.4295,0.0185,1.439,-0.733,-0.7055,-0.6105,-0.6425,-0.628,-0.6215,-0.5775,-0.5625,-0.0085,-0.042,0.0565
-1.4515,-1.4335,0.0175,1.4425,-0.734,-0.708,-0.6125,-0.6435,-0.6275,-0.6205,-0.5755,-0.5625,-0.01,-0.039,0.052
-1.45,-1.433,0.0165,1.4415,-0.733,-0.708,-0.621,-0.645,-0.627,-0.622,-0.578,-0.5635,-0.009,-0.045,0.0505
-1.453,-1.432,0.0205,1.4425,-0.7365,-0.7055,-0.614,-0.6455,-0.63,-0.625,-0.5825,-0.567,-0.013,-0.048,0.051
-1.453,-1.4315,0.0215,1.4425,-0.737,-0.705,-0.6155,-0.646,-0.6325,-0.627,-0.5815,-0.567,-0.015,-0.046,0.052
-1.451,-1.426,0.0245,1.4385,-0.7375,-0.7005,-0.6175,-0.6455,-0.632,-0.6275,-0.5785,-0.5615,-0.0125,-0.052,0.0465
-1.4485,-1.426,0.022,1.4375,-0.735,-0.7015,-0.616,-0.6535,-0.6345,-0.628,-0.578,-0.5585,-0.009,-0.054,0.047
-1.4415,-1.428,0.013,1.4345,-0.727,-0.707,-0.628,-0.6475,-0.6295,-0.6285,-0.577,-0.56,-0.008,-0.05,0.051
-1.457,-1.437,0.0195,1.447,-0.738,-0.7085,-0.616,-0.6415,-0.6265,-0.626,-0.574,-0.556,-0.01,-0.0455,0.0465
-1.4495,-1.43,0.019,1.4395,-0.734,-0.705,-0.609,-0.642,-0.625,-0.625,-0.573,-0.554,-0.009,-0.043,0.049
-1.4395,-1.4225,0.0165,1.431,-0.7275,-0.703,-0.6195,-0.64,-0.625,-0.6245,-0.572,-0.5545,-0.007,-0.0485,0.058
-1.448,-1.43,0.017,1.439,-0.7325,-0.706,-0.6185,-0.645,-0.627,-0.626,-0.5715,-0.556,-0.008,-0.049,0.0605
-1.4415,-1.431,0.01,1.4365,-0.7255,-0.7105,-0.62,-0.6465,-0.624,-0.624,-0.57,-0.5545,-0.0075,-0.046,0.0605
-1.443,-1.4345,0.008,1.439,-0.7255,-0.713,-0.617,-0.6475,-0.6235,-0.6215,-0.568,-0.553,-0.006,-0.0535,0.0575
-1.4335,-1.433,0.0005,1.4335,-0.717,-0.716,-0.6225,-0.6425,-0.62,-0.6195,-0.569,-0.55,-0.0015,-0.0565,0.055
-1.428,-1.4315,-0.0035,1.43,-0.712,-0.7175,-0.6265,-0.6415,-0.6165,-0.6155,-0.565,-0.546,0.0015,-0.051,0.0505
-1.4415,-1.435,0.0065,1.438,-0.7235,-0.714,-0.615,-0.6385,-0.614,-0.6115,-0.561,-0.5435,0.003,-0.0515,0.0455
-1.451,-1.4385,0.0115,1.4445,-0.731,-0.713,-0.6125,-0.635,-0.6125,-0.611,-0.5625,-0.545,0.0035,-0.055,0.043
-1.458,-1.4435,0.014,1.4505,-0.7355,-0.7145,-0.6145,-0.637,-0.6145,-0.6135,-0.566,-0.549,0.001,-0.0615,0.0395
-1.466,-1.4505,0.015,1.458,-0.7405,-0.7175,-0.618,-0.6395,-0.6195,-0.6145,-0.5675,-0.5495,0.0005,-0.0575,0.0395
-1.458,-1.444,0.0135,1.451,-0.7355,-0.715,-0.614,-0.6375,-0.6155,-0.609,-0.5625,-0.546,0.0035,-0.0505,0.037
-1.44,-1.4315,0.008,1.436,-0.7235,-0.7115,-0.611,-0.629,-0.6095,-0.604,-0.5605,-0.5445,0.004,-0.0565,0.0385
-1.4365,-1.4295,0.006,1.433,-0.721,-0.7115,-0.618,-0.6345,-0.614,-0.6085,-0.5655,-0.549,0.002,-0.0555,0.0405
-1.437,-1.4285,0.008,1.4325,-0.7225,-0.71,-0.6155,-0.6335,-0.6145,-0.611,-0.567,-0.5515,-0.0025,-0.0575,0.045
-1.4425,-1.432,0.0095,1.4375,-0.7255,-0.711,-0.614,-0.6255,-0.6095,-0.6075,-0.5665,-0.5515,-0.0035,-0.0525,0.0535
-1.4435,-1.4335,0.009,1.4385,-0.726,-0.712,-0.6135,-0.631,-0.6095,-0.606,-0.564,-0.5505,0.0005,-0.036,0.0545
-1.4335,-1.4265,0.0065,1.43,-0.72,-0.7095,-0.6155,-0.6325,-0.61,-0.6055,-0.562,-0.55,0.0015,-0.045,0.0585
-1.4345,-1.4235,0.0105,1.429,-0.7225,-0.706,-0.6305,-0.631,-0.6125,-0.6085,-0.5655,-0.5525,-0.0015,-0.05,0.06
-1.442,-1.4255,0.016,1.4335,-0.729,-0.7045,-0.6155,-0.632,-0.613,-0.61,-0.567,-0.555,-0.0045,-0.039,0.0565
-1.437,-1.4205,0.016,1.4285,-0.726,-0.702,-0.6035,-0.627,-0.6095,-0.609,-0.5655,-0.554,-0.001,-0.0415,0.0625
-1.4335,-1.416,0.017,1.425,-0.725,-0.699,-0.6155,-0.6285,-0.61,-0.61,-0.566,-0.553,0.0,-0.0385,0.0665
-1.44,-1.416,0.023,1.428,-0.731,-0.6965,-0.616,-0.629,-0.6145,-0.612,-0.5665,-0.554,-0.0025,-0.033,0.0675
-1.4365,-1.411,0.025,1.424,-0.7305,-0.6925,-0.6145,-0.624,-0.6105,-0.607,-0.5605,-0.549,0.001,-0.033,0.071
-1.4255,-1.406,0.0195,1.416,-0.722,-0.693,-0.619,-0.6285,-0.6035,-0.5985,-0.554,-0.5465,0.007,-0.036,0.072
-1.4255,-1.406,0.019,1.416,-0.722,-0.6935,-0.621,-0.6265,-0.604,-0.598,-0.554,-0.5495,0.0045,-0.039,0.0725
-1.421,-1.4055,0.0155,1.4135,-0.718,-0.6945,-0.6145,-0.6195,-0.6005,-0.595,-0.555,-0.549,0.0005,-0.0335,0.073
-1.4205,-1.4115,0.0085,1.416,-0.714,-0.7015,-0.6175,-0.6235,-0.6,-0.594,-0.556,-0.552,0.0005,-0.0355,0.076
-1.426,-1.413,0.012,1.4195,-0.7185,-0.7005,-0.6175,-0.6235,-0.5985,-0.591,-0.5525,-0.5485,0.0005,-0.041,0.0725
-1.4155,-1.4065,0.0085,1.411,-0.7115,-0.699,-0.613,-0.621,-0.5965,-0.588,-0.5485,-0.544,0.002,-0.043,0.072
-1.4195,-1.4115,0.0075,1.4155,-0.7135,-0.7015,-0.6175,-0.621,-0.5945,-0.588,-0.552,-0.547,-0.0005,-0.0385,0.072
-1.4165,-1.4125,0.0035,1.4145,-0.7095,-0.7045,-0.6165,-0.619,-0.5915,-0.5845,-0.551,-0.545,0.0005,-0.0375,0.0735
-1.404,-1.4075,-0.004,1.4055,-0.6995,-0.7055,-0.611,-0.614,-0.5875,-0.58,-0.547,-0.541,0.0055,-0.046,0.0755
-1.42,-1.4165,0.003,1.418,-0.711,-0.7065,-0.609,-0.6185,-0.59,-0.5815,-0.549,-0.543,0.001,-0.051,0.069
-1.4205,-1.4165,0.0035,1.4185,-0.712,-0.7065,-0.6055,-0.6085,-0.585,-0.579,-0.548,-0.544,0.0005,-0.0565,0.065
-1.413,-1.414,-0.0015,1.4135,-0.7055,-0.7075,-0.602,-0.602,-0.579,-0.5755,-0.5455,-0.5425,0.001,-0.0495,0.0585
-1.4145,-1.417,-0.0025,1.4155,-0.7055,-0.7095,-0.6035,-0.6095,-0.582,-0.579,-0.55,-0.548,-0.0055,-0.042,0.058
-1.408,-1.4075,0.0005,1.4075,-0.704,-0.7035,-0.614,-0.602,-0.578,-0.5785,-0.552,-0.5495,-0.0015,-0.045,0.063
-1.412,-1.406,0.0055,1.409,-0.7085,-0.7,-0.615,-0.606,-0.579,-0.578,-0.551,-0.55,0.0025,-0.0465,0.0615
-1.4195,-1.4105,0.0085,1.415,-0.714,-0.7005,-0.6085,-0.6065,-0.5795,-0.578,-0.552,-0.5545,0.001,-0.0445,0.06
-1.424,-1.416,0.0075,1.42,-0.7155,-0.704,-0.611,-0.608,-0.5815,-0.5795,-0.5545,-0.557,0.002,-0.0355,0.0585
-1.4235,-1.416,0.007,1.4195,-0.715,-0.7045,-0.609,-0.609,-0.5765,-0.576,-0.5505,-0.5545,0.0055,-0.0315,0.058
-1.413,-1.4085,0.0045,1.4105,-0.7085,-0.7015,-0.6105,-0.607,-0.576,-0.5755,-0.5485,-0.551,0.011,-0.044,0.0655
-1.4085,-1.4055,0.0025,1.407,-0.7055,-0.701,-0.6025,-0.596,-0.573,-0.5725,-0.5465,-0.5475,0.0145,-0.0405,0.061
-1.4215,-1.4165,0.0045,1.419,-0.713,-0.7055,-0.6085,-0.598,-0.5695,-0.571,-0.5485,-0.551,0.012,-0.0365,0.0535
-1.43,-1.425,0.0045,1.4275,-0.717,-0.71,-0.614,-0.6125,-0.578,-0.576,-0.554,-0.556,0.005,-0.0505,0.053
-1.422,-1.415,0.006,1.4185,-0.7135,-0.7045,-0.6065,-0.6005,-0.568,-0.5675,-0.5455,-0.549,0.0075,-0.052,0.0485
-1.416,-1.4165,-0.001,1.416,-0.707,-0.7085,-0.6165,-0.591,-0.56,-0.562,-0.542,-0.547,0.0115,-0.0545,0.048
-1.41,-1.416,-0.0065,1.4135,-0.7015,-0.711,-0.6095,-0.591,-0.559,-0.5595,-0.5425,-0.5485,0.0115,-0.0535,0.047
-1.417,-1.424,-0.0075,1.4205,-0.7045,-0.7155,-0.602,-0.6035,-0.567,-0.5655,-0.546,-0.5505,0.011,-0.06,0.0515
-1.419,-1.428,-0.0095,1.4235,-0.7045,-0.7185,-0.6,-0.6035,-0.5665,-0.5665,-0.5485,-0.553,0.0095,-0.062,0.049
-1.414,-1.4205,-0.007,1.417,-0.7035,-0.7135,-0.602,-0.583,-0.5555,-0.557,-0.5425,-0.5455,0.011,-0.0575,0.042
-1.423,-1.428,-0.0055,1.4255,-0.7085,-0.7165,-0.601,-0.579,-0.5525,-0.554,-0.539,-0.541,0.011,-0.063,0.0415
-1.4175,-1.4215,-0.0045,1.4195,-0.706,-0.713,-0.6015,-0.586,-0.554,-0.558,-0.5415,-0.5475,0.008,-0.0565,0.046
-1.4,-1.4095,-0.01,1.405,-0.695,-0.7095,-0.6045,-0.586,-0.555,-0.5585,-0.542,-0.548,0.0135,-0.053,0.0525
-1.3975,-1.4085,-0.0115,1.403,-0.693,-0.7095,-0.6005,-0.582,-0.5505,-0.5535,-0.538,-0.546,0.018,-0.0535,0.053
-1.406,-1.415,-0.0095,1.4105,-0.698,-0.712,-0.606,-0.583,-0.551,-0.554,-0.5375,-0.547,0.0185,-0.044,0.055
-1.4025,-1.4105,-0.0085,1.4065,-0.6965,-0.709,-0.6045,-0.583,-0.552,-0.554,-0.5375,-0.5465,0.0205,-0.0445,0.0545
-1.3955,-1.402,-0.007,1.3985,-0.694,-0.704,-0.601,-0.581,-0.5505,-0.5525,-0.5365,-0.5475,0.0195,-0.0555,0.0575
-1.4025,-1.4055,-0.003,1.404,-0.6995,-0.704,-0.598,-0.5715,-0.5405,-0.5445,-0.5305,-0.545,0.0245,-0.05,0.0595
-1.4035,-1.4095,-0.0065,1.4065,-0.698,-0.708,-0.601,-0.573,-0.5355,-0.539,-0.524,-0.5425,0.0295,-0.0495,0.057
-1.3965,-1.4075,-0.0115,1.402,-0.6925,-0.709,-0.6025,-0.577,-0.5335,-0.5365,-0.522,-0.544,0.0275,-0.0515,0.058
-1.401,-1.4035,-0.0035,1.4025,-0.6985,-0.7035,-0.5935,-0.558,-0.5275,-0.532,-0.519,-0.54,0.029,-0.0425,0.052
-1.397,-1.401,-0.0045,1.399,-0.696,-0.7025,-0.596,-0.5545,-0.525,-0.528,-0.5155,-0.5365,0.034,-0.058,0.053
-1.395,-1.403,-0.0085,1.399,-0.693,-0.7055,-0.596,-0.556,-0.5215,-0.526,-0.5175,-0.538,0.032,-0.0595,0.0515
-1.4105,-1.411,-0.0005,1.4105,-0.705,-0.7055,-0.5895,-0.547,-0.516,-0.5235,-0.518,-0.538,0.028,-0.0455,0.038
-1.413,-1.4125,0.0,1.413,-0.7065,-0.706,-0.5875,-0.5465,-0.5135,-0.518,-0.5165,-0.5365,0.0325,-0.05,0.04
-1.402,-1.4155,-0.014,1.409,-0.694,-0.7145,-0.587,-0.5465,-0.5115,-0.5155,-0.515,-0.5335,0.039,-0.0575,0.0485
-1.4035,-1.423,-0.0205,1.4135,-0.6915,-0.7215,-0.5825,-0.5425,-0.507,-0.5155,-0.5155,-0.531,0.039,-0.058,0.052
-1.395,-1.42,-0.026,1.4075,-0.684,-0.723,-0.5875,-0.541,-0.507,-0.515,-0.5155,-0.526,0.04,-0.06,0.0565
-1.3835,-1.414,-0.031,1.3985,-0.676,-0.7225,-0.594,-0.537,-0.501,-0.51,-0.513,-0.5215,0.0415,-0.0705,0.057
-1.3895,-1.424,-0.035,1.407,-0.677,-0.729,-0.58,-0.5335,-0.4955,-0.508,-0.5145,-0.524,0.037,-0.074,0.0545
-1.3815,-1.4255,-0.044,1.4035,-0.6685,-0.7345,-0.5835,-0.534,-0.4935,-0.5025,-0.508,-0.518,0.0405,-0.083,0.0525
-1.3745,-1.423,-0.049,1.3985,-0.6625,-0.7355,-0.5845,-0.5335,-0.491,-0.498,-0.505,-0.514,0.043,-0.085,0.052
-1.3735,-1.428,-0.0555,1.401,-0.659,-0.7415,-0.5785,-0.527,-0.485,-0.4955,-0.505,-0.5145,0.043,-0.076,0.0525
-1.3735,-1.431,-0.058,1.402,-0.6575,-0.7445,-0.5785,-0.516,-0.481,-0.494,-0.5025,-0.5145,0.042,-0.078,0.051
-1.3755,-1.434,-0.059,1.405,-0.658,-0.7465,-0.576,-0.5215,-0.4845,-0.498,-0.5085,-0.5185,0.0365,-0.079,0.051
-1.366,-1.429,-0.0635,1.3975,-0.651,-0.746,-0.5795,-0.5195,-0.478,-0.494,-0.507,-0.5215,0.0375,-0.079,0.0525
-1.366,-1.43,-0.0645,1.398,-0.6505,-0.747,-0.573,-0.5055,-0.4695,-0.488,-0.5055,-0.5205,0.036,-0.068,0.048
-1.3815,-1.4405,-0.0595,1.411,-0.6605,-0.75,-0.573,-0.5105,-0.472,-0.4915,-0.51,-0.526,0.03,-0.064,0.0465
-1.378,-1.439,-0.0615,1.4085,-0.658,-0.75,-0.5735,-0.5045,-0.467,-0.488,-0.507,-0.527,0.033,-0.0795,0.049
-1.3745,-1.4375,-0.063,1.406,-0.6555,-0.75,-0.571,-0.4965,-0.4595,-0.481,-0.504,-0.5235,0.035,-0.0795,0.0465
-1.384,-1.444,-0.0605,1.414,-0.6615,-0.752,-0.5735,-0.4995,-0.46,-0.4815,-0.5035,-0.524,0.037,-0.08,0.042
-1.389,-1.4485,-0.06,1.4185,-0.664,-0.754,-0.563,-0.4935,-0.4555,-0.477,-0.502,-0.525,0.037,-0.0865,0.0385
-1.3965,-1.45,-0.054,1.423,-0.671,-0.7515,-0.5615,-0.4905,-0.4535,-0.4735,-0.503,-0.5285,0.033,-0.084,0.039
-1.389,-1.4445,-0.0565,1.4165,-0.666,-0.7505,-0.57,-0.491,-0.4495,-0.469,-0.498,-0.5195,0.0455,-0.0805,0.0385
-1.375,-1.4395,-0.065,1.407,-0.655,-0.752,-0.5735,-0.4855,-0.4425,-0.4635,-0.4945,-0.517,0.05,-0.087,0.036
-1.381,-1.447,-0.0665,1.4135,-0.657,-0.7565,-0.564,-0.477,-0.439,-0.462,-0.496,-0.523,0.045,-0.099,0.037
-1.3805,-1.4505,-0.07,1.4155,-0.655,-0.76,-0.5535,-0.4745,-0.4335,-0.46,-0.4955,-0.524,0.046,-0.0905,0.0365
-1.3745,-1.4475,-0.0735,1.411,-0.65,-0.7605,-0.556,-0.4705,-0.4295,-0.455,-0.4935,-0.5245,0.048,-0.0875,0.039
-1.3845,-1.4585,-0.0745,1.4215,-0.655,-0.766,-0.5635,-0.471,-0.4285,-0.4545,-0.495,-0.529,0.0465,-0.0905,0.0415
-1.382,-1.457,-0.0755,1.4195,-0.653,-0.766,-0.5645,-0.4695,-0.4255,-0.4535,-0.4975,-0.5325,0.044,-0.0845,0.0395
-1.3765,-1.4515,-0.0755,1.414,-0.6505,-0.763,-0.5555,-0.46,-0.4165,-0.446,-0.4945,-0.53,0.0445,-0.087,0.036
-1.372,-1.453,-0.082,1.4125,-0.645,-0.767,-0.556,-0.4585,-0.414,-0.445,-0.4935,-0.533,0.0455,-0.0925,0.0365
-1.3665,-1.4485,-0.0825,1.4075,-0.642,-0.765,-0.55,-0.451,-0.408,-0.439,-0.489,-0.5305,0.0475,-0.0975,0.035
-1.3765,-1.458,-0.082,1.4175,-0.647,-0.77,-0.5505,-0.449,-0.406,-0.4385,-0.49,-0.5305,0.045,-0.0945,0.0345
-1.378,-1.464,-0.0865,1.421,-0.6455,-0.775,-0.551,-0.4465,-0.4065,-0.4425,-0.496,-0.5375,0.0445,-0.0955,0.037
-1.3785,-1.467,-0.0885,1.4225,-0.6445,-0.7775,-0.548,-0.4465,-0.404,-0.4425,-0.496,-0.5375,0.049,-0.094,0.0355
-1.3835,-1.4705,-0.0875,1.427,-0.648,-0.779,-0.5555,-0.446,-0.4015,-0.44,-0.4925,-0.5325,0.058,-0.0885,0.039
-1.3725,-1.458,-0.086,1.4155,-0.643,-0.772,-0.544,-0.4305,-0.391,-0.4305,-0.4845,-0.527,0.063,-0.0975,0.0455
-1.3745,-1.459,-0.085,1.417,-0.6445,-0.7715,-0.54,-0.43,-0.39,-0.429,-0.484,-0.529,0.06,-0.099,0.049
-1.377,-1.467,-0.0905,1.422,-0.643,-0.7785,-0.5425,-0.424,-0.3855,-0.426,-0.486,-0.5325,0.0605,-0.097,0.05
-1.372,-1.469,-0.0975,1.4205,-0.637,-0.783,-0.5405,-0.418,-0.3785,-0.4215,-0.485,-0.532,0.0645,-0.101,0.053
-1.3785,-1.4715,-0.094,1.425,-0.642,-0.7825,-0.5405,-0.4215,-0.3785,-0.42,-0.4835,-0.531,0.069,-0.1,0.0595
-1.3775,-1.4755,-0.099,1.4265,-0.639,-0.787,-0.544,-0.4195,-0.375,-0.4165,-0.4815,-0.53,0.0765,-0.108,0.067
-1.384,-1.484,-0.1005,1.434,-0.6415,-0.792,-0.539,-0.416,-0.373,-0.4165,-0.4835,-0.5335,0.074,-0.1025,0.0675
-1.3735,-1.4755,-0.1025,1.4245,-0.6355,-0.789,-0.527,-0.4035,-0.363,-0.4065,-0.477,-0.5285,0.078,-0.0925,0.0625
-1.366,-1.473,-0.1075,1.4195,-0.629,-0.79,-0.534,-0.399,-0.3515,-0.395,-0.467,-0.521,0.0865,-0.102,0.06
-1.3715,-1.478,-0.107,1.4245,-0.632,-0.792,-0.532,-0.397,-0.3475,-0.392,-0.466,-0.5195,0.0875,-0.0945,0.0525
-1.3565,-1.472,-0.116,1.414,-0.62,-0.7935,-0.5415,-0.402,-0.349,-0.389,-0.463,-0.516,0.0895,-0.099,0.057
-1.36,-1.4785,-0.119,1.4195,-0.6205,-0.7985,-0.541,-0.4015,-0.348,-0.3915,-0.4665,-0.5185,0.0855,-0.1095,0.0625
-1.368,-1.487,-0.1195,1.4275,-0.624,-0.803,-0.532,-0.3965,-0.345,-0.3925,-0.4685,-0.517,0.085,-0.1065,0.0585
-1.3555,-1.482,-0.127,1.4185,-0.614,-0.804,-0.538,-0.391,-0.338,-0.386,-0.463,-0.5115,0.085,-0.106,0.0575
-1.3485,-1.4805,-0.132,1.4145,-0.6085,-0.806,-0.523,-0.372,-0.3255,-0.3795,-0.458,-0.5085,0.0885,-0.106,0.0525
-1.351,-1.488,-0.1375,1.4195,-0.607,-0.812,-0.5215,-0.373,-0.325,-0.3785,-0.4555,-0.507,0.091,-0.114,0.0515
-1.353,-1.4925,-0.14,1.4225,-0.6065,-0.816,-0.524,-0.366,-0.324,-0.379,-0.4595,-0.512,0.085,-0.1175,0.052
-1.3465,-1.4935,-0.148,1.42,-0.5995,-0.8205,-0.5185,-0.3665,-0.3185,-0.3755,-0.4605,-0.5145,0.0845,-0.128,0.0475
-1.347,-1.498,-0.1515,1.4225,-0.598,-0.8245,-0.5135,-0.368,-0.313,-0.3695,-0.457,-0.513,0.087,-0.1315,0.0415
-1.3515,-1.5005,-0.1495,1.426,-0.601,-0.825,-0.506,-0.3515,-0.303,-0.3625,-0.4515,-0.51,0.0905,-0.126,0.0385
-1.3565,-1.503,-0.147,1.43,-0.605,-0.825,-0.5045,-0.341,-0.296,-0.358,-0.4495,-0.507,0.0925,-0.121,0.0425
-1.357,-1.503,-0.1465,1.43,-0.6055,-0.8245,-0.5035,-0.332,-0.2885,-0.3525,-0.4445,-0.5055,0.097,-0.1165,0.0395
-1.3485,-1.4975,-0.1495,1.423,-0.5995,-0.8235,-0.4985,-0.3295,-0.2875,-0.351,-0.4435,-0.505,0.0995,-0.118,0.0355
-1.3535,-1.5065,-0.154,1.43,-0.6,-0.83,-0.5015,-0.328,-0.2855,-0.351,-0.446,-0.51,0.1015,-0.123,0.0355
-1.3425,-1.502,-0.16,1.4225,-0.5915,-0.8305,-0.5035,-0.329,-0.2775,-0.3405,-0.4405,-0.5065,0.108,-0.1385,0.0305
-1.3375,-1.492,-0.155,1.415,-0.5915,-0.8235,-0.503,-0.33,-0.2795,-0.3395,-0.4385,-0.501,0.1155,-0.135,0.0305
-1.341,-1.493,-0.152,1.417,-0.595,-0.822,-0.494,-0.3195,-0.273,-0.3355,-0.435,-0.4995,0.12,-0.13,0.035
-1.3305,-1.4855,-0.1555,1.408,-0.588,-0.82,-0.486,-0.308,-0.264,-0.33,-0.431,-0.4985,0.121,-0.1395,0.0375
-1.339,-1.489,-0.1505,1.414,-0.5945,-0.8195,-0.4875,-0.3095,-0.264,-0.3295,-0.4315,-0.5005,0.1185,-0.129,0.0345
-1.343,-1.4915,-0.1495,1.417,-0.597,-0.82,-0.486,-0.305,-0.2585,-0.3245,-0.43,-0.5025,0.1165,-0.1235,0.032
-1.3315,-1.4915,-0.1605,1.4115,-0.586,-0.826,-0.4925,-0.307,-0.259,-0.323,-0.431,-0.503,0.12,-0.133,0.0355
-1.325,-1.49,-0.166,1.4075,-0.5795,-0.828,-0.4925,-0.309,-0.258,-0.321,-0.4315,-0.5015,0.124,-0.132,0.034
-1.3265,-1.4875,-0.1615,1.4075,-0.583,-0.8245,-0.4895,-0.2975,-0.2495,-0.3165,-0.429,-0.4975,0.1255,-0.133,0.0295
-1.334,-1.4955,-0.162,1.415,-0.586,-0.8285,-0.4915,-0.3,-0.2525,-0.317,-0.43,-0.4965,0.123,-0.13,0.0265
-1.327,-1.492,-0.1655,1.4095,-0.581,-0.8285,-0.492,-0.308,-0.253,-0.317,-0.4295,-0.4955,0.124,-0.124,0.027
-1.329,-1.4945,-0.166,1.412,-0.5815,-0.83,-0.485,-0.3,-0.246,-0.313,-0.4265,-0.4945,0.124,-0.1345,0.0265
-1.3355,-1.504,-0.1695,1.4195,-0.5835,-0.8365,-0.491,-0.286,-0.2415,-0.308,-0.424,-0.493,0.127,-0.1465,0.0275
-1.3245,-1.501,-0.177,1.413,-0.574,-0.8385,-0.4905,-0.2865,-0.2355,-0.3035,-0.4175,-0.4865,0.1355,-0.14,0.0285
-1.3185,-1.5045,-0.1865,1.4115,-0.5665,-0.8455,-0.4745,-0.2825,-0.2325,-0.3,-0.4145,-0.4885,0.1365,-0.139,0.0295
-1.323,-1.5085,-0.186,1.4155,-0.569,-0.847,-0.4805,-0.279,-0.233,-0.299,-0.414,-0.488,0.137,-0.1455,0.0275
-1.325,-1.5065,-0.182,1.416,-0.5715,-0.8445,-0.4775,-0.2815,-0.2285,-0.2945,-0.409,-0.484,0.1385,-0.1335,0.0235
-1.3305,-1.5095,-0.1795,1.42,-0.5755,-0.8445,-0.476,-0.275,-0.2255,-0.2935,-0.41,-0.485,0.1385,-0.134,0.0235
-1.3275,-1.5105,-0.1835,1.419,-0.5725,-0.8465,-0.478,-0.2755,-0.228,-0.297,-0.413,-0.4885,0.1375,-0.136,0.0195
-1.3195,-1.506,-0.187,1.413,-0.5665,-0.8465,-0.472,-0.273,-0.224,-0.2915,-0.406,-0.4825,0.1395,-0.1315,0.0115
-1.3285,-1.5145,-0.187,1.422,-0.571,-0.8505,-0.4795,-0.2755,-0.2255,-0.29,-0.4045,-0.478,0.14,-0.142,0.0115
-1.326,-1.521,-0.1955,1.4235,-0.5655,-0.858,-0.4795,-0.2795,-0.23,-0.2945,-0.41,-0.487,0.139,-0.1555,0.0125
-1.333,-1.5255,-0.193,1.4295,-0.5705,-0.859,-0.469,-0.269,-0.2255,-0.293,-0.4065,-0.4845,0.1395,-0.1495,0.0055
-1.3355,-1.5285,-0.1935,1.432,-0.5715,-0.8605,-0.468,-0.2715,-0.223,-0.289,-0.4035,-0.481,0.1385,-0.142,0.0035
-1.3325,-1.5295,-0.1975,1.431,-0.5675,-0.863,-0.4725,-0.284,-0.2285,-0.291,-0.404,-0.4815,0.139,-0.154,0.007
-1.347,-1.534,-0.1875,1.4405,-0.58,-0.8605,-0.468,-0.2725,-0.2255,-0.291,-0.403,-0.4835,0.1375,-0.15,0.0035
-1.343,-1.533,-0.19,1.438,-0.577,-0.8615,-0.472,-0.2675,-0.2235,-0.2905,-0.4045,-0.4875,0.1355,-0.1485,0.0015
-1.3445,-1.538,-0.1945,1.4415,-0.575,-0.866,-0.471,-0.2765,-0.2285,-0.2925,-0.4065,-0.488,0.1375,-0.1505,0.0015
-1.3425,-1.529,-0.187,1.4355,-0.578,-0.8575,-0.4565,-0.267,-0.2215,-0.2865,-0.4025,-0.4875,0.138,-0.1335,-0.002
-1.3325,-1.5185,-0.1865,1.4255,-0.573,-0.8525,-0.459,-0.263,-0.223,-0.286,-0.4045,-0.4875,0.1395,-0.1355,0.002
-1.3275,-1.5175,-0.1905,1.4225,-0.5685,-0.854,-0.4645,-0.272,-0.2295,-0.292,-0.4095,-0.4895,0.145,-0.1385,0.011
-1.324,-1.5105,-0.1865,1.417,-0.569,-0.848,-0.4665,-0.274,-0.2315,-0.2935,-0.4085,-0.489,0.144,-0.129,0.0125
-1.327,-1.507,-0.181,1.417,-0.5735,-0.8435,-0.462,-0.2695,-0.2355,-0.298,-0.412,-0.49,0.1405,-0.128,0.0145
-1.3285,-1.5045,-0.1765,1.4165,-0.576,-0.84,-0.4655,-0.285,-0.24,-0.299,-0.4105,-0.4865,0.1445,-0.127,0.014
-1.328,-1.5005,-0.173,1.414,-0.5775,-0.8365,-0.468,-0.2935,-0.242,-0.2975,-0.4075,-0.4835,0.1495,-0.128,0.0145
-1.3335,-1.503,-0.17,1.418,-0.582,-0.8365,-0.4715,-0.283,-0.235,-0.2925,-0.401,-0.4815,0.1535,-0.1195,0.0155
-1.3405,-1.5055,-0.1655,1.423,-0.5875,-0.835,-0.471,-0.2825,-0.2385,-0.295,-0.4005,-0.48,0.153,-0.115,0.0115
-1.341,-1.506,-0.1655,1.4235,-0.588,-0.8355,-0.4715,-0.2855,-0.2445,-0.306,-0.409,-0.4875,0.1435,-0.115,0.0155
-1.34,-1.509,-0.17,1.4245,-0.585,-0.8395,-0.48,-0.2925,-0.2475,-0.31,-0.411,-0.4935,0.1375,-0.118,0.0125
-1.343,-1.5095,-0.167,1.426,-0.588,-0.838,-0.475,-0.3005,-0.254,-0.311,-0.409,-0.491,0.1385,-0.1205,0.0045
-1.3355,-1.5055,-0.1705,1.4205,-0.583,-0.8375,-0.477,-0.2965,-0.2535,-0.31,-0.406,-0.4875,0.143,-0.123,0.007
-1.336,-1.5055,-0.17,1.4205,-0.583,-0.8375,-0.4725,-0.296,-0.2575,-0.31,-0.4065,-0.4885,0.138,-0.1285,0.0095
-1.348,-1.506,-0.1585,1.427,-0.595,-0.832,-0.4765,-0.314,-0.2655,-0.3135,-0.4085,-0.4895,0.13,-0.1265,0.01
-1.345,-1.505,-0.16,1.425,-0.5925,-0.832,-0.4815,-0.31,-0.265,-0.315,-0.409,-0.4885,0.1305,-0.122,0.009
-1.3535,-1.511,-0.1575,1.4325,-0.5985,-0.834,-0.4745,-0.3065,-0.266,-0.315,-0.409,-0.4865,0.1285,-0.1135,0.0015
-1.3485,-1.506,-0.158,1.427,-0.5955,-0.8315,-0.483,-0.319,-0.273,-0.3205,-0.4115,-0.485,0.133,-0.1185,0.0045
-1.3415,-1.5005,-0.1595,1.421,-0.591,-0.83,-0.4865,-0.3205,-0.2775,-0.3245,-0.4175,-0.4905,0.132,-0.119,0.0045
-1.356,-1.5005,-0.145,1.428,-0.606,-0.8225,-0.47,-0.3175,-0.2845,-0.3295,-0.4215,-0.4915,0.1255,-0.1135,-0.005
-1.3605,-1.496,-0.1365,1.4285,-0.612,-0.816,-0.4745,-0.3185,-0.2845,-0.3305,-0.4205,-0.487,0.1215,-0.1125,-0.009
-1.367,-1.502,-0.1355,1.4345,-0.6155,-0.8185,-0.482,-0.3335,-0.2865,-0.332,-0.4245,-0.4905,0.118,-0.11,-0.016
-1.3635,-1.4995,-0.1365,1.4315,-0.6135,-0.818,-0.478,-0.333,-0.29,-0.3365,-0.4265,-0.49,0.1165,-0.1085,-0.016
-1.3605,-1.494,-0.134,1.427,-0.613,-0.8135,-0.484,-0.3355,-0.292,-0.3365,-0.4235,-0.484,0.1145,-0.112,-0.017
-1.366,-1.4965,-0.131,1.4315,-0.6175,-0.8135,-0.4805,-0.3455,-0.3015,-0.3405,-0.424,-0.486,0.113,-0.12,-0.0175
-1.3635,-1.4965,-0.1335,1.43,-0.615,-0.8145,-0.4755,-0.3395,-0.3005,-0.343,-0.423,-0.4855,0.114,-0.108,-0.01
-1.373,-1.5005,-0.128,1.4365,-0.6225,-0.814,-0.479,-0.3445,-0.305,-0.3495,-0.4285,-0.488,0.11,-0.1005,-0.002
-1.379,-1.5055,-0.127,1.442,-0.6255,-0.816,-0.4845,-0.359,-0.3205,-0.361,-0.4355,-0.495,0.105,-0.096,0.006
-1.3745,-1.5055,-0.1315,1.44,-0.6215,-0.8185,-0.4885,-0.3695,-0.33,-0.3695,-0.4395,-0.4955,0.105,-0.088,0.0115
-1.384,-1.501,-0.118,1.4425,-0.6325,-0.809,-0.4825,-0.3625,-0.3275,-0.3675,-0.4355,-0.4885,0.103,-0.087,0.01
-1.388,-1.5,-0.1125,1.444,-0.6375,-0.806,-0.4805,-0.36,-0.329,-0.3705,-0.438,-0.4885,0.101,-0.0815,0.008
-1.3915,-1.5065,-0.1155,1.449,-0.638,-0.811,-0.483,-0.37,-0.341,-0.38,-0.4485,-0.4965,0.094,-0.083,0.013
-1.3955,-1.5035,-0.1085,1.4495,-0.643,-0.8055,-0.484,-0.375,-0.342,-0.3785,-0.444,-0.495,0.09,-0.0845,0.009
-1.394,-1.5025,-0.109,1.448,-0.642,-0.8055,-0.4935,-0.3845,-0.344,-0.381,-0.445,-0.4965,0.09,-0.0885,0.0065
-1.392,-1.5025,-0.111,1.447,-0.64,-0.8065,-0.4845,-0.3805,-0.3455,-0.383,-0.4485,-0.4985,0.0855,-0.0905,0.0055
-1.3945,-1.499,-0.105,1.4465,-0.6445,-0.8015,-0.476,-0.38,-0.348,-0.3845,-0.4485,-0.497,0.0835,-0.086,0.0025
-1.3985,-1.4965,-0.099,1.4475,-0.6495,-0.7975,-0.4865,-0.387,-0.3545,-0.3865,-0.45,-0.497,0.084,-0.0815,0.0035
-1.395,-1.4955,-0.101,1.4455,-0.647,-0.798,-0.483,-0.3925,-0.3585,-0.388,-0.4495,-0.4985,0.083,-0.0795,0.005
-1.3895,-1.4935,-0.1045,1.4415,-0.642,-0.7985,-0.4865,-0.4055,-0.3655,-0.394,-0.4505,-0.5005,0.0815,-0.079,0.007
-1.3935,-1.496,-0.103,1.4445,-0.645,-0.799,-0.493,-0.4115,-0.3715,-0.3975,-0.453,-0.5005,0.0815,-0.0785,0.0075
-1.3955,-1.499,-0.1045,1.447,-0.6455,-0.8015,-0.4945,-0.4065,-0.3695,-0.3965,-0.452,-0.4975,0.0845,-0.078,0.006
-1.381,-1.4845,-0.104,1.433,-0.6385,-0.794,-0.4955,-0.408,-0.3675,-0.395,-0.4485,-0.492,0.09,-0.077,-0.001
-1.3875,-1.4835,-0.097,1.4355,-0.645,-0.79,-0.4915,-0.414,-0.38,-0.4065,-0.455,-0.4965,0.0845,-0.0775,-0.0045
-1.391,-1.481,-0.0905,1.436,-0.65,-0.786,-0.4915,-0.411,-0.3825,-0.4125,-0.456,-0.497,0.083,-0.073,-0.004
-1.3915,-1.4745,-0.084,1.433,-0.6535,-0.779,-0.4875,-0.419,-0.3845,-0.4135,-0.4565,-0.4985,0.0835,-0.0785,-0.0015
-1.3995,-1.478,-0.079,1.4385,-0.66,-0.778,-0.493,-0.427,-0.393,-0.421,-0.462,-0.5045,0.0775,-0.081,0.0
-1.3945,-1.4735,-0.0795,1.434,-0.657,-0.776,-0.497,-0.4285,-0.3965,-0.4255,-0.464,-0.506,0.0765,-0.0725,-0.0045
-1.3995,-1.4735,-0.0745,1.4365,-0.6625,-0.7735,-0.5005,-0.441,-0.409,-0.435,-0.471,-0.5145,0.0705,-0.0585,-0.011
-1.4,-1.462,-0.062,1.431,-0.6685,-0.7615,-0.4985,-0.445,-0.412,-0.4395,-0.4735,-0.5155,0.066,-0.061,-0.016
-1.4005,-1.4585,-0.0585,1.4295,-0.6705,-0.7585,-0.4975,-0.448,-0.418,-0.445,-0.477,-0.515,0.0675,-0.068,-0.0075
-1.413,-1.4635,-0.051,1.438,-0.681,-0.757,-0.5075,-0.458,-0.424,-0.4505,-0.4805,-0.5175,0.0695,-0.064,0.003
-1.4195,-1.4665,-0.047,1.443,-0.686,-0.7565,-0.513,-0.462,-0.427,-0.452,-0.4825,-0.519,0.0685,-0.069,0.0045
-1.4225,-1.468,-0.046,1.4455,-0.688,-0.757,-0.517,-0.461,-0.4285,-0.451,-0.4815,-0.5175,0.0695,-0.0615,-0.002
-1.413,-1.458,-0.0455,1.4355,-0.6835,-0.7515,-0.5115,-0.4605,-0.4285,-0.451,-0.48,-0.5155,0.071,-0.064,-0.002
-1.4135,-1.462,-0.049,1.438,-0.6825,-0.755,-0.5025,-0.453,-0.436,-0.456,-0.4815,-0.517,0.067,-0.0605,0.002
-1.4185,-1.4645,-0.0465,1.4415,-0.686,-0.755,-0.5075,-0.4595,-0.435,-0.4545,-0.4825,-0.517,0.0675,-0.0535,0.003
-1.4165,-1.467,-0.051,1.4415,-0.6825,-0.7585,-0.511,-0.468,-0.434,-0.454,-0.485,-0.519,0.0685,-0.059,0.0065
-1.4145,-1.466,-0.0525,1.44,-0.6805,-0.759,-0.51,-0.4625,-0.433,-0.453,-0.4835,-0.5175,0.066,-0.054,0.0035
-1.4195,-1.468,-0.049,1.4435,-0.685,-0.758,-0.5135,-0.472,-0.44,-0.4565,-0.487,-0.5225,0.0595,-0.057,0.005
-1.4255,-1.4705,-0.0455,1.448,-0.6895,-0.7575,-0.509,-0.472,-0.4415,-0.4585,-0.487,-0.5215,0.0575,-0.0565,0.0055
-1.4035,-1.451,-0.048,1.427,-0.6775,-0.7495,-0.5055,-0.471,-0.436,-0.4515,-0.4785,-0.5145,0.0605,-0.053,-0.0015
-1.41,-1.4505,-0.0405,1.43,-0.6845,-0.745,-0.5085,-0.4715,-0.4395,-0.453,-0.479,-0.5165,0.061,-0.056,-0.0065
-1.4295,-1.462,-0.033,1.446,-0.698,-0.7475,-0.5195,-0.4805,-0.4475,-0.4615,-0.4845,-0.5215,0.054,-0.063,-0.009
-1.4215,-1.4575,-0.0365,1.4395,-0.692,-0.7465,-0.526,-0.4845,-0.4505,-0.4625,-0.484,-0.519,0.0515,-0.063,-0.015
-1.434,-1.46,-0.0265,1.447,-0.7035,-0.743,-0.513,-0.482,-0.4525,-0.466,-0.485,-0.52,0.0485,-0.054,-0.017
-1.4515,-1.468,-0.017,1.4595,-0.717,-0.742,-0.51,-0.489,-0.4605,-0.4725,-0.488,-0.5235,0.045,-0.041,-0.017
-1.438,-1.46,-0.0225,1.449,-0.7075,-0.741,-0.515,-0.4885,-0.4615,-0.4725,-0.4865,-0.5215,0.0455,-0.0435,-0.021
-1.4405,-1.4605,-0.02,1.4505,-0.71,-0.74,-0.5175,-0.4955,-0.4635,-0.475,-0.4885,-0.524,0.0415,-0.05,-0.0165
-1.442,-1.455,-0.0135,1.4485,-0.714,-0.734,-0.5145,-0.488,-0.46,-0.4725,-0.4845,-0.5205,0.047,-0.0435,-0.012
-1.421,-1.441,-0.021,1.431,-0.6995,-0.7305,-0.5135,-0.488,-0.4585,-0.472,-0.485,-0.5185,0.0525,-0.047,-0.008
-1.418,-1.44,-0.0225,1.429,-0.6975,-0.731,-0.5185,-0.4995,-0.466,-0.476,-0.486,-0.514,0.057,-0.0465,-0.005
-1.4265,-1.449,-0.023,1.4375,-0.7015,-0.7355,-0.5155,-0.496,-0.467,-0.4765,-0.487,-0.515,0.0525,-0.0435,-0.005
-1.426,-1.455,-0.03,1.4405,-0.6975,-0.7425,-0.526,-0.509,-0.4725,-0.484,-0.495,-0.5225,0.0445,-0.0455,-0.004
-1.4295,-1.451,-0.0225,1.44,-0.7035,-0.7365,-0.521,-0.5055,-0.4745,-0.4845,-0.4955,-0.5225,0.041,-0.0465,-0.0055
-1.4405,-1.457,-0.017,1.449,-0.7115,-0.737,-0.5125,-0.5015,-0.4715,-0.48,-0.4945,-0.5235,0.0345,-0.041,-0.0095
-1.4445,-1.463,-0.0195,1.4535,-0.7125,-0.741,-0.5145,-0.507,-0.4735,-0.482,-0.495,-0.5235,0.032,-0.0365,-0.014
-1.4505,-1.4655,-0.015,1.458,-0.7175,-0.74,-0.5115,-0.5045,-0.476,-0.485,-0.497,-0.523,0.0275,-0.0485,-0.0115
-1.4405,-1.4635,-0.0235,1.452,-0.708,-0.743,-0.5175,-0.5105,-0.4815,-0.4875,-0.4975,-0.523,0.0245,-0.058,-0.0095
-1.434,-1.4615,-0.028,1.448,-0.703,-0.7445,-0.5155,-0.505,-0.4795,-0.4875,-0.4975,-0.5225,0.0225,-0.0565,-0.0125
-1.4465,-1.4685,-0.023,1.4575,-0.7115,-0.7455,-0.5125,-0.5075,-0.482,-0.4885,-0.497,-0.519,0.025,-0.0545,-0.016
-1.4405,-1.4645,-0.0245,1.4525,-0.7075,-0.7445,-0.514,-0.5095,-0.483,-0.4845,-0.4915,-0.5135,0.0275,-0.0535,-0.018
-1.4375,-1.464,-0.027,1.4505,-0.705,-0.745,-0.509,-0.511,-0.4865,-0.486,-0.494,-0.5155,0.0255,-0.051,-0.0185
-1.437,-1.4635,-0.027,1.4505,-0.705,-0.745,-0.5115,-0.5075,-0.487,-0.4875,-0.4945,-0.5165,0.0245,-0.05,-0.0195
-1.4385,-1.4625,-0.0245,1.4505,-0.707,-0.743,-0.5145,-0.5065,-0.4845,-0.4855,-0.491,-0.514,0.0225,-0.049,-0.0215
-1.433,-1.457,-0.0245,1.445,-0.704,-0.7405,-0.5115,-0.515,-0.489,-0.4885,-0.491,-0.5155,0.023,-0.0545,-0.0185
-1.4295,-1.4525,-0.024,1.441,-0.7025,-0.738,-0.5175,-0.518,-0.491,-0.49,-0.49,-0.517,0.0225,-0.0575,-0.015
-1.4455,-1.463,-0.018,1.4545,-0.7135,-0.74,-0.5165,-0.516,-0.4935,-0.4915,-0.4915,-0.5205,0.0195,-0.0445,-0.0215
-1.436,-1.449,-0.0135,1.4425,-0.711,-0.731,-0.5085,-0.506,-0.4875,-0.4845,-0.4855,-0.5165,0.023,-0.0415,-0.026
-1.4335,-1.4415,-0.008,1.4375,-0.7125,-0.7245,-0.51,-0.512,-0.489,-0.4855,-0.487,-0.5175,0.021,-0.0495,-0.0265
-1.443,-1.447,-0.0045,1.445,-0.719,-0.7255,-0.5235,-0.523,-0.4965,-0.493,-0.4945,-0.5265,0.0155,-0.0455,-0.026
-1.4385,-1.4375,0.0005,1.438,-0.7195,-0.7185,-0.5175,-0.519,-0.494,-0.493,-0.4945,-0.527,0.015,-0.0335,-0.0235
-1.4335,-1.434,-0.001,1.434,-0.716,-0.7175,-0.5135,-0.5185,-0.4955,-0.4955,-0.4955,-0.525,0.0165,-0.038,-0.02
-1.4345,-1.435,-0.001,1.4345,-0.7165,-0.7175,-0.5345,-0.5225,-0.4985,-0.495,-0.4945,-0.522,0.021,-0.031,-0.0135
-1.4395,-1.436,0.003,1.4375,-0.721,-0.7165,-0.5235,-0.521,-0.498,-0.4985,-0.4985,-0.5265,0.0195,-0.035,-0.0105
-1.438,-1.436,0.0015,1.4365,-0.7195,-0.717,-0.518,-0.524,-0.4995,-0.501,-0.499,-0.5285,0.0195,-0.048,-0.0115
-1.432,-1.428,0.004,1.43,-0.7175,-0.712,-0.5235,-0.522,-0.4965,-0.4955,-0.4955,-0.5255,0.0215,-0.0435,-0.0195
-1.424,-1.4255,-0.0015,1.4245,-0.711,-0.713,-0.527,-0.524,-0.4975,-0.497,-0.4985,-0.526,0.022,-0.0365,-0.0205
-1.4225,-1.4285,-0.0065,1.4255,-0.708,-0.7175,-0.5235,-0.5245,-0.499,-0.498,-0.4975,-0.5255,0.0255,-0.03,-0.017
-1.4295,-1.437,-0.0085,1.4335,-0.71,-0.7225,-0.521,-0.5225,-0.5005,-0.502,-0.502,-0.5305,0.0205,-0.032,-0.0215
-1.424,-1.4355,-0.012,1.4295,-0.7055,-0.7235,-0.534,-0.5245,-0.501,-0.5025,-0.5035,-0.529,0.022,-0.0385,-0.0225
-1.4335,-1.4395,-0.0065,1.4365,-0.7135,-0.723,-0.528,-0.53,-0.503,-0.502,-0.501,-0.528,0.016,-0.0505,-0.0285
-1.4455,-1.444,0.0015,1.445,-0.7235,-0.721,-0.5255,-0.5355,-0.5055,-0.5055,-0.504,-0.5305,0.008,-0.0495,-0.0405
-1.433,-1.4315,0.001,1.4325,-0.717,-0.715,-0.5185,-0.5225,-0.4985,-0.502,-0.5025,-0.533,0.009,-0.0425,-0.045
-1.437,-1.432,0.0045,1.4345,-0.7205,-0.7135,-0.523,-0.525,-0.501,-0.5035,-0.502,-0.5345,0.006,-0.04,-0.044
-1.4285,-1.4245,0.0035,1.4265,-0.716,-0.71,-0.5295,-0.53,-0.5015,-0.503,-0.5005,-0.5285,0.008,-0.042,-0.041
-1.4275,-1.4255,0.001,1.4265,-0.714,-0.712,-0.5135,-0.5255,-0.499,-0.502,-0.5005,-0.5305,0.004,-0.0495,-0.0375
-1.4335,-1.4305,0.0025,1.432,-0.718,-0.7135,-0.516,-0.535,-0.5025,-0.505,-0.503,-0.534,0.0035,-0.0545,-0.0315
-1.4385,-1.437,0.0015,1.4375,-0.72,-0.7175,-0.5215,-0.5285,-0.502,-0.508,-0.506,-0.536,0.0065,-0.0495,-0.0275
-1.44,-1.441,-0.0015,1.4405,-0.719,-0.721,-0.5195,-0.5185,-0.499,-0.5085,-0.5075,-0.535,0.0065,-0.048,-0.02
-1.427,-1.4335,-0.0075,1.43,-0.7095,-0.72,-0.5195,-0.525,-0.5005,-0.5085,-0.5085,-0.5365,0.004,-0.0445,-0.011
-1.4305,-1.4355,-0.0055,1.433,-0.712,-0.7205,-0.519,-0.525,-0.5015,-0.51,-0.509,-0.538,0.0015,-0.0275,-0.0145
-1.43,-1.435,-0.0055,1.4325,-0.712,-0.72,-0.5145,-0.5165,-0.498,-0.5065,-0.504,-0.529,0.004,-0.0295,-0.012
-1.429,-1.436,-0.0075,1.4325,-0.7105,-0.7215,-0.5115,-0.517,-0.499,-0.5065,-0.504,-0.529,0.002,-0.0345,-0.0085
-1.4175,-1.4325,-0.0155,1.425,-0.701,-0.7235,-0.517,-0.523,-0.4995,-0.507,-0.503,-0.5265,0.0085,-0.043,-0.0085
-1.415,-1.4285,-0.014,1.422,-0.7005,-0.721,-0.523,-0.518,-0.496,-0.502,-0.498,-0.5195,0.014,-0.047,-0.004
-1.432,-1.437,-0.0055,1.4345,-0.713,-0.721,-0.5125,-0.515,-0.4975,-0.5035,-0.5015,-0.5275,0.0035,-0.0415,-0.006
-1.429,-1.438,-0.01,1.4335,-0.7095,-0.7235,-0.5135,-0.523,-0.5005,-0.5055,-0.5025,-0.528,0.0025,-0.053,-0.007
-1.423,-1.436,-0.013,1.4295,-0.705,-0.724,-0.52,-0.522,-0.498,-0.502,-0.499,-0.523,0.0115,-0.0495,-0.007
-1.4195,-1.4355,-0.0165,1.4275,-0.701,-0.7255,-0.513,-0.518,-0.5,-0.5005,-0.4965,-0.521,0.017,-0.0445,-0.006
-1.416,-1.4325,-0.017,1.4245,-0.6995,-0.7245,-0.5195,-0.5235,-0.4995,-0.499,-0.4955,-0.52,0.018,-0.0395,-0.0035
-1.422,-1.433,-0.0115,1.4275,-0.705,-0.722,-0.517,-0.5155,-0.494,-0.4965,-0.499,-0.527,0.011,-0.0345,-0.0045
-1.4365,-1.4365,0.0,1.4365,-0.718,-0.718,-0.525,-0.5275,-0.5035,-0.504,-0.505,-0.5335,0.0035,-0.034,0.003
-1.434,-1.4335,0.0,1.434,-0.717,-0.7165,-0.527,-0.5315,-0.5055,-0.5065,-0.506,-0.534,0.0035,-0.024,0.004
-1.412,-1.422,-0.0105,1.417,-0.7005,-0.716,-0.512,-0.5155,-0.495,-0.4985,-0.5,-0.526,0.01,-0.033,-0.001
-1.4095,-1.421,-0.012,1.4155,-0.6985,-0.716,-0.5195,-0.516,-0.4975,-0.5005,-0.501,-0.526,0.009,-0.041,0.003
-1.4035,-1.4245,-0.0215,1.414,-0.691,-0.723,-0.5215,-0.517,-0.498,-0.501,-0.503,-0.5315,0.0055,-0.039,0.0025
-1.4025,-1.423,-0.021,1.4125,-0.6905,-0.7215,-0.5185,-0.52,-0.498,-0.502,-0.503,-0.5335,0.006,-0.0395,-0.0025
-1.404,-1.417,-0.0135,1.4105,-0.695,-0.715,-0.518,-0.52,-0.4995,-0.505,-0.5045,-0.538,0.007,-0.0355,-0.0075
-1.398,-1.411,-0.0135,1.4045,-0.692,-0.7125,-0.5175,-0.5205,-0.497,-0.5015,-0.4995,-0.5365,0.0125,-0.0375,-0.007
-1.411,-1.4085,0.002,1.4095,-0.706,-0.703,-0.517,-0.5065,-0.487,-0.494,-0.4905,-0.5255,0.0165,-0.0365,-0.003
-1.4145,-1.4075,0.0065,1.411,-0.7105,-0.7,-0.5125,-0.5155,-0.4885,-0.4955,-0.4905,-0.5215,0.018,-0.0305,-0.003
-1.4055,-1.413,-0.008,1.409,-0.6985,-0.7105,-0.519,-0.521,-0.4955,-0.502,-0.4965,-0.5275,0.0155,-0.042,-0.0065
-1.413,-1.4115,0.001,1.412,-0.7065,-0.705,-0.522,-0.512,-0.492,-0.4985,-0.492,-0.5225,0.018,-0.0425,-0.009
-1.4195,-1.409,0.01,1.414,-0.7145,-0.699,-0.518,-0.5175,-0.4925,-0.498,-0.491,-0.5185,0.018,-0.0345,-0.0105
-1.414,-1.406,0.007,1.41,-0.7105,-0.6995,-0.526,-0.5125,-0.491,-0.4955,-0.49,-0.516,0.018,-0.0355,-0.0095
-1.4115,-1.407,0.0045,1.409,-0.7075,-0.701,-0.5165,-0.512,-0.49,-0.496,-0.4885,-0.5125,0.0195,-0.026,-0.0055
-1.406,-1.41,-0.0045,1.408,-0.7005,-0.707,-0.5035,-0.5075,-0.485,-0.4945,-0.4885,-0.5145,0.0145,-0.036,-0.004
-1.398,-1.4105,-0.013,1.4045,-0.6925,-0.7115,-0.5065,-0.5165,-0.4915,-0.4975,-0.4905,-0.5155,0.0125,-0.048,0.0005
-1.4,-1.4095,-0.01,1.405,-0.695,-0.7095,-0.516,-0.518,-0.4965,-0.501,-0.4925,-0.519,0.0045,-0.035,-0.002
-1.4055,-1.4025,0.0025,1.404,-0.7035,-0.6995,-0.5195,-0.5145,-0.492,-0.4965,-0.4895,-0.513,0.0055,-0.0355,-0.0045
-1.3985,-1.403,-0.005,1.401,-0.6965,-0.7035,-0.515,-0.517,-0.4945,-0.5,-0.491,-0.5095,0.0095,-0.0355,0.002
-1.4005,-1.4065,-0.0065,1.4035,-0.6965,-0.7065,-0.528,-0.523,-0.4965,-0.501,-0.491,-0.515,0.007,-0.037,0.0015
-1.4055,-1.405,-0.0005,1.405,-0.7025,-0.7025,-0.5145,-0.5125,-0.4895,-0.493,-0.487,-0.5135,0.0095,-0.0325,-0.009
-1.4135,-1.408,0.005,1.4105,-0.709,-0.701,-0.506,-0.506,-0.486,-0.492,-0.4865,-0.5135,0.0105,-0.03,-0.014
-1.4045,-1.406,-0.0015,1.4055,-0.701,-0.7035,-0.5115,-0.515,-0.495,-0.4975,-0.49,-0.5155,0.0155,-0.043,-0.008
-1.381,-1.396,-0.0155,1.3885,-0.6825,-0.7055,-0.5195,-0.5135,-0.499,-0.503,-0.4945,-0.519,0.0185,-0.0425,-0.0015
-1.394,-1.398,-0.0045,1.396,-0.6945,-0.701,-0.53,-0.5205,-0.4955,-0.502,-0.4935,-0.517,0.0195,-0.0505,-0.003
-1.4065,-1.4045,0.0015,1.4055,-0.704,-0.701,-0.518,-0.5225,-0.4945,-0.5005,-0.494,-0.515,0.0195,-0.0445,-0.012
-1.406,-1.404,0.0015,1.405,-0.7035,-0.701,-0.523,-0.5225,-0.4955,-0.503,-0.497,-0.517,0.0185,-0.038,-0.015
-1.4085,-1.4045,0.0035,1.4065,-0.706,-0.7,-0.5265,-0.519,-0.4955,-0.504,-0.4995,-0.52,0.018,-0.04,-0.0115
-1.416,-1.4095,0.006,1.413,-0.7105,-0.7015,-0.5215,-0.519,-0.5,-0.5085,-0.5055,-0.5265,0.0115,-0.0285,-0.0155
-1.42,-1.4165,0.003,1.418,-0.711,-0.7065,-0.5205,-0.528,-0.504,-0.5115,-0.509,-0.53,0.0065,-0.031,-0.0185
-1.417,-1.417,-0.0005,1.417,-0.708,-0.7085,-0.525,-0.527,-0.502,-0.508,-0.507,-0.5285,0.006,-0.033,-0.0205
-1.424,-1.418,0.005,1.421,-0.714,-0.706,-0.5145,-0.5165,-0.496,-0.504,-0.5045,-0.531,0.004,-0.032,-0.0265
-1.4215,-1.4185,0.003,1.42,-0.712,-0.7075,-0.5145,-0.5165,-0.493,-0.4995,-0.502,-0.532,0.0035,-0.038,-0.022
-1.415,-1.4145,0.0,1.4145,-0.707,-0.707,-0.5285,-0.515,-0.49,-0.4955,-0.496,-0.525,0.007,-0.045,-0.0185
-1.4145,-1.415,-0.001,1.415,-0.7065,-0.708,-0.53,-0.518,-0.489,-0.4935,-0.491,-0.5225,0.007,-0.0495,-0.0155
-1.414,-1.422,-0.0085,1.418,-0.7025,-0.715,-0.53,-0.5175,-0.493,-0.4945,-0.4925,-0.5255,0.005,-0.0485,-0.007
-1.4115,-1.421,-0.01,1.416,-0.7005,-0.715,-0.5125,-0.514,-0.494,-0.498,-0.4945,-0.5295,-0.001,-0.0415,-0.007
-1.3965,-1.418,-0.022,1.407,-0.687,-0.7195,-0.514,-0.52,-0.4905,-0.494,-0.4925,-0.5275,0.001,-0.038,-0.007
-1.3995,-1.424,-0.025,1.4115,-0.687,-0.724,-0.5145,-0.513,-0.485,-0.4875,-0.4895,-0.5225,0.0025,-0.0435,-0.0095
-1.4145,-1.425,-0.011,1.42,-0.7015,-0.718,-0.513,-0.5135,-0.4865,-0.487,-0.487,-0.5255,-0.0035,-0.0405,-0.012
-1.4135,-1.423,-0.01,1.4185,-0.7015,-0.7165,-0.5165,-0.513,-0.487,-0.488,-0.4865,-0.5245,-0.003,-0.0335,-0.012
-1.4115,-1.426,-0.015,1.4185,-0.698,-0.72,-0.5135,-0.5115,-0.4865,-0.4895,-0.4875,-0.522,-0.0005,-0.035,-0.0145
-1.4075,-1.4255,-0.0185,1.4165,-0.694,-0.722,-0.514,-0.5145,-0.488,-0.49,-0.4885,-0.525,0.001,-0.0365,-0.0145
-1.4015,-1.419,-0.018,1.4105,-0.6915,-0.7185,-0.5105,-0.5085,-0.4835,-0.4865,-0.484,-0.5225,0.001,-0.0395,-0.016
-1.4015,-1.417,-0.016,1.409,-0.692,-0.7165,-0.5175,-0.5205,-0.4885,-0.4905,-0.4845,-0.521,0.004,-0.043,-0.0115
-1.403,-1.4125,-0.01,1.408,-0.6965,-0.711,-0.519,-0.5205,-0.487,-0.4885,-0.4795,-0.515,0.0095,-0.0455,-0.0135
-1.401,-1.4125,-0.012,1.4065,-0.6945,-0.712,-0.525,-0.504,-0.4815,-0.485,-0.4765,-0.5125,0.0115,-0.04,-0.015
-1.3975,-1.4085,-0.0115,1.403,-0.693,-0.7095,-0.5205,-0.5115,-0.484,-0.4865,-0.478,-0.5125,0.0105,-0.0385,-0.013
-1.398,-1.406,-0.0085,1.402,-0.6945,-0.707,-0.516,-0.5085,-0.4805,-0.484,-0.474,-0.5085,0.0105,-0.0405,-0.0175
-1.3985,-1.4095,-0.0115,1.404,-0.6935,-0.71,-0.527,-0.5065,-0.483,-0.4865,-0.4785,-0.512,0.011,-0.0465,-0.0125
-1.3935,-1.404,-0.011,1.3985,-0.691,-0.7075,-0.5185,-0.5125,-0.485,-0.487,-0.48,-0.5115,0.0125,-0.0445,-0.011
-1.396,-1.405,-0.009,1.4005,-0.693,-0.707,-0.522,-0.5065,-0.484,-0.485,-0.4795,-0.514,0.0135,-0.0325,-0.012
-1.391,-1.398,-0.007,1.3945,-0.6915,-0.7025,-0.5265,-0.5125,-0.4855,-0.4835,-0.4775,-0.509,0.018,-0.037,-0.0085
-1.3925,-1.4035,-0.011,1.398,-0.6905,-0.707,-0.5285,-0.5155,-0.49,-0.488,-0.481,-0.5095,0.015,-0.04,-0.0085
-1.4015,-1.412,-0.011,1.4065,-0.695,-0.711,-0.529,-0.527,-0.497,-0.4945,-0.488,-0.516,0.0095,-0.0315,-0.0095
-1.3855,-1.403,-0.018,1.3945,-0.6835,-0.7105,-0.52,-0.518,-0.492,-0.491,-0.487,-0.5145,0.011,-0.036,-0.0105
-1.3855,-1.3995,-0.0145,1.3925,-0.685,-0.7065,-0.521,-0.5,-0.4885,-0.489,-0.4865,-0.514,0.016,-0.047,-0.01
-1.398,-1.4045,-0.007,1.4015,-0.6955,-0.7055,-0.5295,-0.5185,-0.496,-0.4925,-0.488,-0.516,0.016,-0.0475,-0.0105
-1.397,-1.4085,-0.012,1.4025,-0.6925,-0.7095,-0.526,-0.514,-0.494,-0.4915,-0.4895,-0.5215,0.0125,-0.045,-0.015
-1.3945,-1.4015,-0.0075,1.398,-0.693,-0.704,-0.5195,-0.511,-0.4925,-0.4885,-0.4875,-0.5205,0.0135,-0.0405,-0.015
-1.3945,-1.4015,-0.008,1.398,-0.693,-0.7045,-0.5245,-0.5155,-0.494,-0.49,-0.4895,-0.5225,0.0125,-0.0475,-0.0135
-1.3835,-1.3955,-0.0125,1.3895,-0.6855,-0.7035,-0.5225,-0.51,-0.4935,-0.4905,-0.4885,-0.5225,0.0145,-0.045,-0.0205
-1.3805,-1.39,-0.0095,1.3855,-0.6855,-0.6995,-0.5205,-0.513,-0.4945,-0.493,-0.489,-0.522,0.0135,-0.0465,-0.024
-1.392,-1.3935,-0.002,1.393,-0.695,-0.6975,-0.5345,-0.521,-0.5005,-0.499,-0.498,-0.5325,0.004,-0.0515,-0.021
-1.391,-1.3885,0.002,1.39,-0.696,-0.693,-0.528,-0.5215,-0.5005,-0.499,-0.4995,-0.533,0.0015,-0.0395,-0.022
-1.394,-1.389,0.0045,1.3915,-0.699,-0.692,-0.519,-0.5175,-0.499,-0.4985,-0.4985,-0.531,0.0005,-0.0395,-0.0215
-1.4,-1.395,0.0045,1.3975,-0.702,-0.695,-0.5285,-0.524,-0.504,-0.5025,-0.504,-0.537,-0.0045,-0.0325,-0.026
-1.3935,-1.392,0.001,1.393,-0.697,-0.695,-0.528,-0.517,-0.499,-0.5,-0.5025,-0.5345,-0.0015,-0.034,-0.0315
-1.399,-1.3955,0.003,1.3975,-0.701,-0.696,-0.5265,-0.515,-0.4995,-0.5015,-0.503,-0.5375,-0.0025,-0.034,-0.024
-1.403,-1.3985,0.004,1.4005,-0.7035,-0.697,-0.522,-0.517,-0.499,-0.499,-0.5005,-0.533,-0.0025,-0.027,-0.0265
-1.4025,-1.399,0.0035,1.4005,-0.703,-0.6975,-0.527,-0.5175,-0.497,-0.4975,-0.4975,-0.528,0.0,-0.028,-0.028
-1.4055,-1.4055,-0.0005,1.4055,-0.702,-0.703,-0.522,-0.5135,-0.4965,-0.498,-0.4995,-0.535,-0.0045,-0.023,-0.0205
-1.4015,-1.399,0.002,1.4005,-0.7015,-0.698,-0.5195,-0.5155,-0.492,-0.491,-0.4915,-0.5235,0.0025,-0.0395,-0.02
-1.412,-1.4,0.011,1.406,-0.711,-0.6945,-0.526,-0.5185,-0.4905,-0.487,-0.4845,-0.513,0.006,-0.044,-0.0235
-1.41,-1.4055,0.004,1.408,-0.7065,-0.7005,-0.523,-0.502,-0.4855,-0.485,-0.4835,-0.515,0.006,-0.0425,-0.0195
-1.3905,-1.3975,-0.0075,1.394,-0.6915,-0.7025,-0.523,-0.5045,-0.4855,-0.485,-0.4825,-0.5155,0.01,-0.0455,-0.007
-1.391,-1.396,-0.0055,1.3935,-0.6925,-0.7005,-0.518,-0.511,-0.489,-0.484,-0.4815,-0.5155,0.006,-0.038,-0.002
-1.3825,-1.392,-0.0105,1.387,-0.6855,-0.701,-0.528,-0.509,-0.4895,-0.484,-0.482,-0.5145,0.0055,-0.0505,0.0065
-1.366,-1.3805,-0.0155,1.373,-0.675,-0.6975,-0.532,-0.5065,-0.487,-0.4805,-0.477,-0.51,0.009,-0.0485,0.0065
-1.373,-1.3845,-0.012,1.379,-0.6805,-0.698,-0.532,-0.5105,-0.49,-0.482,-0.4785,-0.5135,0.006,-0.0425,0.001
-1.384,-1.3915,-0.008,1.388,-0.688,-0.6995,-0.53,-0.5115,-0.496,-0.4895,-0.485,-0.518,0.0,-0.0445,0.0035
-1.391,-1.392,-0.0015,1.3915,-0.6945,-0.6965,-0.5205,-0.5095,-0.4945,-0.488,-0.4835,-0.515,0.0025,-0.0395,0.001
-1.39,-1.393,-0.0035,1.3915,-0.693,-0.698,-0.5255,-0.5135,-0.4925,-0.4885,-0.4855,-0.5165,0.0015,-0.0355,0.005
-1.3905,-1.396,-0.006,1.393,-0.692,-0.701,-0.519,-0.5045,-0.492,-0.49,-0.4875,-0.519,-0.0005,-0.028,0.0085
-1.4,-1.403,-0.004,1.4015,-0.698,-0.703,-0.519,-0.514,-0.4975,-0.493,-0.489,-0.52,0.0005,-0.0335,0.0095
-1.3835,-1.3895,-0.007,1.3865,-0.688,-0.698,-0.522,-0.51,-0.4905,-0.487,-0.484,-0.5185,0.004,-0.03,0.009
-1.3735,-1.3795,-0.0065,1.3765,-0.683,-0.6925,-0.517,-0.4995,-0.4815,-0.4805,-0.4805,-0.518,0.0055,-0.034,0.0045
-1.3735,-1.3855,-0.012,1.3795,-0.6805,-0.6985,-0.527,-0.506,-0.487,-0.4845,-0.4825,-0.5195,0.0045,-0.0435,0.007
-1.372,-1.3865,-0.0155,1.379,-0.678,-0.701,-0.527,-0.504,-0.487,-0.4855,-0.483,-0.519,0.008,-0.0465,0.009
-1.3845,-1.391,-0.007,1.388,-0.6885,-0.699,-0.524,-0.516,-0.495,-0.4895,-0.4835,-0.518,0.004,-0.0465,0.003
-1.391,-1.3925,-0.002,1.392,-0.6945,-0.697,-0.524,-0.515,-0.4965,-0.488,-0.483,-0.5165,0.007,-0.0365,-0.006
-1.396,-1.3955,0.0,1.396,-0.6975,-0.6975,-0.521,-0.5095,-0.492,-0.485,-0.48,-0.5135,0.0095,-0.0445,-0.0135
-1.3845,-1.389,-0.0055,1.387,-0.6895,-0.697,-0.5245,-0.508,-0.4905,-0.4835,-0.475,-0.507,0.012,-0.051,-0.017
-1.377,-1.384,-0.0075,1.3805,-0.6845,-0.6955,-0.523,-0.503,-0.4845,-0.4765,-0.4705,-0.502,0.0165,-0.0525,-0.0145
-1.3705,-1.384,-0.014,1.377,-0.678,-0.6985,-0.513,-0.501,-0.481,-0.4735,-0.467,-0.499,0.017,-0.041,-0.012
-1.365,-1.3865,-0.022,1.376,-0.6715,-0.704,-0.5185,-0.513,-0.4905,-0.4795,-0.4705,-0.5,0.0165,-0.044,-0.0005
-1.3685,-1.389,-0.021,1.379,-0.6735,-0.705,-0.522,-0.504,-0.488,-0.4805,-0.472,-0.5025,0.0125,-0.051,0.003
-1.369,-1.3885,-0.02,1.379,-0.674,-0.704,-0.5175,-0.4985,-0.484,-0.4765,-0.466,-0.4995,0.0155,-0.038,0.003
-1.3715,-1.3925,-0.0215,1.382,-0.6745,-0.707,-0.524,-0.5105,-0.489,-0.48,-0.469,-0.5005,0.0175,-0.044,0.006
-1.368,-1.388,-0.0205,1.378,-0.6735,-0.704,-0.517,-0.502,-0.4835,-0.479,-0.469,-0.5,0.0175,-0.0415,-0.002
-1.358,-1.377,-0.0195,1.3675,-0.669,-0.698,-0.5155,-0.501,-0.487,-0.4795,-0.4665,-0.495,0.016,-0.042,0.0005
-1.352,-1.3715,-0.0195,1.3615,-0.666,-0.695,-0.522,-0.505,-0.4915,-0.483,-0.469,-0.4965,0.014,-0.0465,0.0045
-1.355,-1.3715,-0.017,1.363,-0.669,-0.694,-0.522,-0.512,-0.4955,-0.4865,-0.4695,-0.4965,0.015,-0.036,0.005
-1.342,-1.3625,-0.0215,1.3525,-0.66,-0.6915,-0.5185,-0.5025,-0.4875,-0.4815,-0.464,-0.487,0.017,-0.0315,0.004
-1.344,-1.368,-0.025,1.356,-0.659,-0.696,-0.5175,-0.496,-0.485,-0.482,-0.4665,-0.4915,0.0135,-0.033,0.008
-1.3565,-1.377,-0.0205,1.3665,-0.668,-0.6985,-0.52,-0.4995,-0.4875,-0.4835,-0.4695,-0.4955,0.009,-0.0345,0.0095
-1.354,-1.3755,-0.0215,1.365,-0.666,-0.698,-0.5175,-0.4955,-0.4815,-0.4765,-0.466,-0.492,0.0125,-0.037,0.007
-1.3545,-1.3795,-0.025,1.367,-0.6645,-0.702,-0.525,-0.4965,-0.486,-0.482,-0.4705,-0.4985,0.0145,-0.0375,0.012
-1.353,-1.3785,-0.026,1.3655,-0.6635,-0.702,-0.5215,-0.5065,-0.49,-0.485,-0.4735,-0.5015,0.0095,-0.04,0.0085
-1.355,-1.3775,-0.023,1.3665,-0.666,-0.7,-0.5065,-0.498,-0.4845,-0.477,-0.468,-0.4975,0.0095,-0.05,0.0055
-1.3545,-1.377,-0.0235,1.3655,-0.6655,-0.7,-0.5175,-0.496,-0.4855,-0.478,-0.467,-0.494,0.0155,-0.0515,0.0075
-1.3575,-1.379,-0.0215,1.3685,-0.6675,-0.7,-0.5165,-0.5045,-0.4885,-0.4805,-0.4685,-0.4935,0.0145,-0.041,0.0085
-1.362,-1.3775,-0.0165,1.3695,-0.6725,-0.697,-0.5115,-0.496,-0.4855,-0.476,-0.4625,-0.49,0.015,-0.0435,0.005
-1.3555,-1.3735,-0.0185,1.3645,-0.668,-0.696,-0.5235,-0.5,-0.4885,-0.48,-0.464,-0.49,0.0175,-0.051,0.006
-1.3425,-1.37,-0.028,1.356,-0.657,-0.6985,-0.5245,-0.4995,-0.485,-0.4775,-0.464,-0.492,0.0175,-0.0485,0.0065
-1.34,-1.3655,-0.026,1.3525,-0.6565,-0.6955,-0.524,-0.505,-0.4855,-0.4755,-0.4635,-0.493,0.015,-0.045,0.0025
-1.351,-1.3675,-0.017,1.359,-0.6665,-0.692,-0.527,-0.507,-0.4875,-0.479,-0.4675,-0.497,0.008,-0.0395,-0.0015
-1.3495,-1.37,-0.0205,1.36,-0.6645,-0.695,-0.5295,-0.507,-0.489,-0.4785,-0.468,-0.4975,0.0085,-0.044,-0.0015
-1.3515,-1.3705,-0.0195,1.361,-0.666,-0.6945,-0.5175,-0.507,-0.489,-0.4795,-0.468,-0.496,0.009,-0.0445,0.0
-1.3515,-1.371,-0.0195,1.361,-0.6655,-0.695,-0.52,-0.505,-0.49,-0.4825,-0.4705,-0.4965,0.008,-0.035,0.0005
-1.351,-1.371,-0.0205,1.361,-0.665,-0.6955,-0.5235,-0.504,-0.491,-0.484,-0.4725,-0.4975,0.0035,-0.0425,0.0025
-1.358,-1.372,-0.0145,1.365,-0.6715,-0.693,-0.5145,-0.497,-0.4865,-0.482,-0.471,-0.4975,0.0015,-0.0385,-0.0045
-1.363,-1.375,-0.0125,1.369,-0.675,-0.6935,-0.5245,-0.51,-0.495,-0.487,-0.4765,-0.502,0.0005,-0.029,-0.005
-1.358,-1.37,-0.0125,1.364,-0.6725,-0.691,-0.521,-0.5065,-0.4945,-0.4875,-0.477,-0.505,-0.0005,-0.0375,-0.0005
-1.355,-1.3655,-0.011,1.3605,-0.672,-0.688,-0.5175,-0.4995,-0.492,-0.4865,-0.473,-0.501,0.0055,-0.0385,0.0005
-1.358,-1.367,-0.0095,1.3625,-0.674,-0.688,-0.5245,-0.5085,-0.4955,-0.489,-0.4735,-0.501,0.0085,-0.0385,-0.0005
-1.3525,-1.3635,-0.0115,1.358,-0.67,-0.687,-0.5205,-0.503,-0.4925,-0.486,-0.4715,-0.5005,0.009,-0.046,-0.0005
-1.3525,-1.363,-0.011,1.3575,-0.6705,-0.6865,-0.5175,-0.5025,-0.49,-0.485,-0.4685,-0.4965,0.008,-0.0435,0.0
-1.3585,-1.367,-0.009,1.3625,-0.6745,-0.6875,-0.523,-0.5095,-0.4935,-0.4865,-0.4695,-0.4975,0.007,-0.037,-0.001
-1.3585,-1.37,-0.012,1.364,-0.673,-0.6905,-0.517,-0.507,-0.494,-0.488,-0.47,-0.4965,0.0085,-0.0415,0.005
-1.3495,-1.37,-0.021,1.3595,-0.664,-0.695,-0.518,-0.5075,-0.496,-0.49,-0.4705,-0.4955,0.012,-0.0435,0.0105
-1.3595,-1.38,-0.0215,1.37,-0.6685,-0.7005,-0.5235,-0.507,-0.495,-0.4905,-0.472,-0.4955,0.0125,-0.0355,0.01
-1.3655,-1.3875,-0.0225,1.3765,-0.671,-0.705,-0.522,-0.5075,-0.493,-0.487,-0.468,-0.492,0.0145,-0.0355,0.0085
-1.3595,-1.386,-0.027,1.373,-0.666,-0.7065,-0.5225,-0.5165,-0.4985,-0.487,-0.466,-0.4905,0.0165,-0.047,0.013
-1.3575,-1.38,-0.0235,1.3685,-0.6665,-0.7015,-0.52,-0.5065,-0.4925,-0.4825,-0.464,-0.491,0.0125,-0.0455,0.0105
-1.331,-1.3625,-0.032,1.3465,-0.6495,-0.697,-0.525,-0.5025,-0.4885,-0.479,-0.4595,-0.484,0.018,-0.0465,0.004
-1.324,-1.359,-0.0355,1.3415,-0.644,-0.697,-0.524,-0.509,-0.49,-0.4795,-0.4615,-0.483,0.0205,-0.0545,0.0005
-1.3395,-1.363,-0.0245,1.351,-0.657,-0.6935,-0.5205,-0.5055,-0.487,-0.4775,-0.4605,-0.4865,0.014,-0.0575,-0.0005
-1.349,-1.3665,-0.018,1.358,-0.665,-0.692,-0.5195,-0.503,-0.488,-0.4795,-0.4625,-0.4865,0.0135,-0.0565,0.0025
-1.3595,-1.3725,-0.0135,1.366,-0.673,-0.6925,-0.5155,-0.512,-0.4925,-0.4825,-0.4645,-0.486,0.013,-0.043,0.0015
-1.364,-1.377,-0.014,1.3705,-0.675,-0.695,-0.5175,-0.508,-0.493,-0.485,-0.4655,-0.486,0.0095,-0.0455,0.0005
-1.359,-1.38,-0.021,1.3695,-0.669,-0.7005,-0.525,-0.512,-0.4995,-0.4905,-0.471,-0.4925,0.006,-0.055,0.0005
-1.35,-1.3715,-0.022,1.361,-0.6635,-0.6965,-0.52,-0.513,-0.4955,-0.4855,-0.4665,-0.4925,0.0105,-0.05,0.0015
-1.347,-1.368,-0.021,1.3575,-0.663,-0.694,-0.5205,-0.5075,-0.4925,-0.4845,-0.467,-0.494,0.0115,-0.049,0.007
-1.347,-1.3645,-0.018,1.3555,-0.664,-0.691,-0.5225,-0.5155,-0.4975,-0.4865,-0.467,-0.4935,0.012,-0.045,0.0115
-1.355,-1.3635,-0.0095,1.3595,-0.6725,-0.6865,-0.522,-0.5135,-0.498,-0.489,-0.4685,-0.4955,0.0115,-0.04,0.01
-1.359,-1.3625,-0.0045,1.3605,-0.677,-0.683,-0.525,-0.5175,-0.497,-0.49,-0.4725,-0.4985,0.0085,-0.0355,0.005
-1.3575,-1.362,-0.0055,1.3595,-0.6755,-0.6835,-0.5185,-0.512,-0.492,-0.4855,-0.4725,-0.5,0.0115,-0.0315,0.006
-1.3635,-1.3685,-0.0055,1.366,-0.6785,-0.687,-0.526,-0.5145,-0.495,-0.489,-0.4765,-0.502,0.013,-0.0345,0.011
-1.3635,-1.3655,-0.0025,1.3645,-0.6805,-0.6835,-0.5275,-0.5175,-0.4955,-0.4905,-0.477,-0.501,0.0115,-0.032,0.014
-1.371,-1.371,-0.0005,1.371,-0.685,-0.6855,-0.5295,-0.5225,-0.502,-0.498,-0.484,-0.506,0.0055,-0.028,0.019
-1.369,-1.3725,-0.004,1.371,-0.682,-0.688,-0.526,-0.519,-0.5015,-0.4985,-0.486,-0.501,0.007,-0.0315,0.019
-1.369,-1.3795,-0.011,1.3745,-0.679,-0.695,-0.524,-0.5195,-0.5015,-0.499,-0.489,-0.5065,0.004,-0.034,0.0175
-1.3705,-1.3845,-0.014,1.3775,-0.678,-0.699,-0.535,-0.5315,-0.5075,-0.5025,-0.491,-0.512,-0.0025,-0.0375,0.0155
-1.3655,-1.377,-0.012,1.371,-0.6765,-0.6945,-0.5265,-0.51,-0.4965,-0.4935,-0.4835,-0.508,0.0,-0.032,0.014
-1.371,-1.3785,-0.0085,1.3745,-0.681,-0.693,-0.5325,-0.515,-0.497,-0.493,-0.481,-0.505,0.002,-0.025,0.013
-1.3575,-1.368,-0.011,1.3625,-0.673,-0.6895,-0.539,-0.5215,-0.4995,-0.493,-0.4775,-0.501,0.0035,-0.037,0.0155
-1.3455,-1.358,-0.0135,1.3515,-0.666,-0.6855,-0.5245,-0.5075,-0.492,-0.489,-0.478,-0.5035,0.009,-0.039,0.0185
-1.3395,-1.355,-0.0155,1.347,-0.6615,-0.685,-0.519,-0.5035,-0.4875,-0.4865,-0.476,-0.5,0.0175,-0.0325,0.018
-1.341,-1.357,-0.0165,1.349,-0.662,-0.6865,-0.5255,-0.5075,-0.4915,-0.4885,-0.4745,-0.502,0.0165,-0.0355,0.022
-1.349,-1.3595,-0.0105,1.3545,-0.669,-0.6845,-0.531,-0.5125,-0.494,-0.489,-0.4735,-0.501,0.0165,-0.035,0.022
-1.353,-1.365,-0.0125,1.359,-0.67,-0.6885,-0.5295,-0.5125,-0.495,-0.491,-0.474,-0.5005,0.0165,-0.03,0.016
-1.3465,-1.36,-0.0145,1.3535,-0.666,-0.687,-0.5355,-0.519,-0.4985,-0.492,-0.4735,-0.4995,0.018,-0.026,0.012
-1.3405,-1.349,-0.0085,1.345,-0.6655,-0.6785,-0.53,-0.5105,-0.492,-0.487,-0.4695,-0.4965,0.019,-0.029,0.0115
-1.341,-1.3455,-0.0055,1.3435,-0.6675,-0.6755,-0.5255,-0.5035,-0.491,-0.4865,-0.468,-0.4965,0.019,-0.037,0.015
-1.345,-1.3415,0.003,1.343,-0.674,-0.669,-0.5285,-0.507,-0.49,-0.484,-0.4635,-0.489,0.0255,-0.0295,0.011
-1.3535,-1.3505,0.0025,1.352,-0.678,-0.674,-0.531,-0.5155,-0.493,-0.4865,-0.467,-0.493,0.019,-0.0325,0.011
-1.3495,-1.352,-0.003,1.351,-0.673,-0.6775,-0.531,-0.511,-0.4955,-0.488,-0.47,-0.497,0.016,-0.036,0.0175
-1.3495,-1.353,-0.004,1.351,-0.6725,-0.678,-0.5245,-0.503,-0.493,-0.4875,-0.4695,-0.495,0.017,-0.0295,0.018
-1.345,-1.3585,-0.014,1.3515,-0.665,-0.686,-0.5275,-0.51,-0.4955,-0.489,-0.4705,-0.493,0.018,-0.0375,0.0195
-1.3505,-1.363,-0.013,1.357,-0.6685,-0.688,-0.5265,-0.5075,-0.4945,-0.489,-0.4685,-0.4885,0.0215,-0.035,0.02
-1.3695,-1.3725,-0.0035,1.371,-0.683,-0.6875,-0.5275,-0.506,-0.4975,-0.4925,-0.47,-0.489,0.017,-0.0235,0.019
-1.3655,-1.37,-0.0045,1.3675,-0.68,-0.687,-0.5285,-0.506,-0.4975,-0.492,-0.4695,-0.4895,0.0155,-0.0255,0.0165
-1.357,-1.3675,-0.011,1.3625,-0.673,-0.689,-0.5245,-0.5035,-0.495,-0.4875,-0.467,-0.489,0.0155,-0.0335,0.0105
-1.356,-1.3685,-0.013,1.362,-0.671,-0.6905,-0.5245,-0.5015,-0.4955,-0.488,-0.4655,-0.486,0.017,-0.046,0.0095
-1.352,-1.364,-0.012,1.358,-0.67,-0.6875,-0.5375,-0.508,-0.4965,-0.4895,-0.4655,-0.4855,0.021,-0.0505,0.0135
-1.353,-1.363,-0.011,1.358,-0.671,-0.687,-0.538,-0.516,-0.4995,-0.4925,-0.471,-0.4895,0.02,-0.0335,0.02
-1.352,-1.362,-0.011,1.357,-0.67,-0.686,-0.5275,-0.51,-0.498,-0.493,-0.4705,-0.4885,0.0175,-0.035,0.0225
-1.3545,-1.363,-0.009,1.3585,-0.6725,-0.6855,-0.5275,-0.502,-0.4965,-0.492,-0.4685,-0.4895,0.0145,-0.042,0.021
-1.3535,-1.362,-0.009,1.358,-0.672,-0.6855,-0.522,-0.504,-0.4995,-0.4945,-0.4715,-0.4925,0.011,-0.03,0.022
-1.3445,-1.3545,-0.0105,1.3495,-0.6665,-0.6825,-0.526,-0.508,-0.4975,-0.4945,-0.4705,-0.4915,0.011,-0.0305,0.024
-1.3295,-1.345,-0.0165,1.337,-0.656,-0.6805,-0.533,-0.505,-0.494,-0.491,-0.466,-0.489,0.016,-0.0325,0.029
-1.334,-1.346,-0.0125,1.34,-0.6605,-0.679,-0.542,-0.5135,-0.5005,-0.494,-0.466,-0.4885,0.0165,-0.0255,0.0315
-1.355,-1.356,-0.0015,1.3555,-0.6765,-0.6785,-0.541,-0.521,-0.5065,-0.4995,-0.471,-0.4935,0.0105,-0.0235,0.0295
-1.36,-1.3545,0.005,1.357,-0.6825,-0.674,-0.5315,-0.5105,-0.5015,-0.496,-0.468,-0.4935,0.0105,-0.0225,0.024
-1.356,-1.348,0.0075,1.352,-0.681,-0.6705,-0.5345,-0.5115,-0.499,-0.494,-0.465,-0.493,0.012,-0.021,0.02
-1.352,-1.3535,-0.0015,1.353,-0.675,-0.677,-0.543,-0.519,-0.5025,-0.4945,-0.4645,-0.4935,0.016,-0.0155,0.019
-1.359,-1.363,-0.0045,1.361,-0.677,-0.6835,-0.545,-0.526,-0.5095,-0.5005,-0.471,-0.499,0.0135,-0.021,0.02
-1.3475,-1.35,-0.003,1.349,-0.672,-0.676,-0.5355,-0.5125,-0.5005,-0.4945,-0.4665,-0.494,0.014,-0.0265,0.0165
-1.345,-1.346,-0.0015,1.3455,-0.672,-0.6735,-0.5335,-0.501,-0.494,-0.4915,-0.463,-0.4885,0.0175,-0.0255,0.0115
-1.3505,-1.351,-0.001,1.3505,-0.6745,-0.676,-0.5355,-0.507,-0.498,-0.497,-0.4705,-0.494,0.013,-0.03,0.015
-1.349,-1.3435,0.005,1.346,-0.6765,-0.669,-0.5285,-0.502,-0.494,-0.4925,-0.4655,-0.491,0.015,-0.017,0.013
-1.3385,-1.336,0.002,1.3375,-0.67,-0.667,-0.536,-0.508,-0.4945,-0.4915,-0.4615,-0.487,0.022,-0.012,0.0135
-1.335,-1.335,-0.0005,1.335,-0.667,-0.6675,-0.543,-0.5145,-0.496,-0.4885,-0.461,-0.4885,0.0205,-0.0125,0.014
-1.3435,-1.331,0.012,1.3375,-0.6775,-0.6595,-0.5325,-0.5065,-0.4915,-0.482,-0.4585,-0.4885,0.0155,0.0015,0.008
-1.3355,-1.32,0.015,1.3275,-0.675,-0.6525,-0.5305,-0.5055,-0.4865,-0.4735,-0.4515,-0.483,0.0185,-0.0035,0.007
-1.3305,-1.3155,0.0145,1.323,-0.6725,-0.6505,-0.531,-0.5065,-0.4855,-0.469,-0.448,-0.4795,0.023,-0.002,0.0025
-1.3205,-1.3045,0.015,1.3125,-0.6675,-0.6445,-0.5245,-0.494,-0.482,-0.466,-0.446,-0.4755,0.025,0.009,0.0025
-1.322,-1.3015,0.02,1.312,-0.6705,-0.6405,-0.5335,-0.496,-0.4755,-0.462,-0.4415,-0.472,0.027,0.0135,0.0045
-1.329,-1.3045,0.024,1.3165,-0.676,-0.64,-0.531,-0.5005,-0.4765,-0.463,-0.443,-0.473,0.025,0.0265,0.001
-1.324,-1.3,0.0235,1.312,-0.6735,-0.638,-0.519,-0.497,-0.4765,-0.4625,-0.44,-0.471,0.0275,0.025,-0.002
-1.3195,-1.2955,0.0235,1.308,-0.6715,-0.636,-0.5295,-0.489,-0.4775,-0.4635,-0.4385,-0.4655,0.03,0.02,-0.0005
-1.316,-1.288,0.0275,1.302,-0.6715,-0.63,-0.519,-0.4915,-0.4775,-0.4645,-0.442,-0.468,0.024,0.029,-0.0015
-1.3165,-1.2835,0.032,1.3,-0.674,-0.6255,-0.5215,-0.504,-0.4775,-0.466,-0.4435,-0.471,0.0245,0.0375,-0.0045
-1.314,-1.286,0.0275,1.3,-0.6705,-0.629,-0.534,-0.502,-0.482,-0.472,-0.4475,-0.4725,0.0215,0.035,-0.008
-1.32,-1.2895,0.0295,1.305,-0.6745,-0.63,-0.5295,-0.5015,-0.482,-0.475,-0.448,-0.475,0.019,0.035,-0.0165
-1.317,-1.282,0.0345,1.2995,-0.6755,-0.624,-0.5305,-0.4995,-0.4795,-0.473,-0.4475,-0.4725,0.0255,0.034,-0.021
-1.308,-1.265,0.0425,1.287,-0.675,-0.611,-0.5185,-0.4925,-0.4735,-0.4655,-0.4435,-0.4705,0.0275,0.042,-0.0335
-1.309,-1.2635,0.045,1.2865,-0.6765,-0.609,-0.5125,-0.488,-0.4705,-0.4625,-0.442,-0.471,0.0305,0.048,-0.0405
-1.308,-1.265,0.0425,1.2865,-0.675,-0.611,-0.5165,-0.491,-0.4725,-0.462,-0.4425,-0.471,0.031,0.0415,-0.037
-1.3115,-1.2585,0.0525,1.285,-0.682,-0.6025,-0.516,-0.489,-0.4685,-0.4565,-0.434,-0.4655,0.034,0.0395,-0.0375
-1.304,-1.2525,0.051,1.2785,-0.677,-0.6005,-0.5195,-0.485,-0.4655,-0.4515,-0.4285,-0.4605,0.0415,0.0385,-0.032
-1.3045,-1.2545,0.049,1.2795,-0.6765,-0.6025,-0.519,-0.4855,-0.4665,-0.452,-0.4265,-0.4595,0.0455,0.0415,-0.03
-1.316,-1.2645,0.051,1.2905,-0.6835,-0.6065,-0.5155,-0.49,-0.4695,-0.4525,-0.4255,-0.4555,0.046,0.047,-0.03
-1.307,-1.2635,0.043,1.2855,-0.675,-0.61,-0.5215,-0.4935,-0.471,-0.4515,-0.426,-0.4575,0.0465,0.047,-0.023
-1.295,-1.2575,0.037,1.2765,-0.6655,-0.61,-0.5145,-0.481,-0.466,-0.449,-0.4235,-0.4575,0.048,0.04,-0.017
-1.292,-1.266,0.0255,1.279,-0.6585,-0.62,-0.523,-0.485,-0.465,-0.4485,-0.426,-0.463,0.043,0.0405,-0.0145
-1.2845,-1.2645,0.0195,1.2745,-0.6515,-0.6225,-0.5205,-0.48,-0.4615,-0.4465,-0.425,-0.4625,0.044,0.028,-0.0135
-1.293,-1.267,0.025,1.28,-0.6585,-0.621,-0.497,-0.4695,-0.461,-0.451,-0.43,-0.466,0.037,0.02,-0.014
-1.297,-1.277,0.0195,1.287,-0.658,-0.6285,-0.4915,-0.474,-0.4605,-0.4545,-0.435,-0.4745,0.027,0.016,-0.0215
-1.2935,-1.2695,0.024,1.2815,-0.6585,-0.6225,-0.486,-0.472,-0.457,-0.4495,-0.4285,-0.468,0.025,0.018,-0.032
-1.3035,-1.264,0.0385,1.2835,-0.671,-0.6125,-0.4875,-0.4705,-0.459,-0.4485,-0.4275,-0.471,0.019,0.0355,-0.032
-1.295,-1.257,0.038,1.276,-0.6665,-0.609,-0.4895,-0.471,-0.4595,-0.4465,-0.4255,-0.4675,0.024,0.038,-0.03
-1.3005,-1.263,0.037,1.282,-0.6685,-0.613,-0.502,-0.4835,-0.468,-0.4545,-0.4325,-0.47,0.0215,0.037,-0.0275
-1.3085,-1.2675,0.0405,1.288,-0.6745,-0.613,-0.499,-0.482,-0.4675,-0.4575,-0.4325,-0.4715,0.0225,0.033,-0.027
-1.302,-1.268,0.034,1.285,-0.668,-0.6165,-0.493,-0.48,-0.469,-0.4585,-0.432,-0.469,0.029,0.025,-0.023
-1.302,-1.2755,0.026,1.2885,-0.6635,-0.6245,-0.504,-0.4885,-0.4775,-0.4665,-0.439,-0.475,0.027,0.03,-0.0165
-1.309,-1.279,0.0295,1.294,-0.669,-0.6245,-0.512,-0.4935,-0.482,-0.471,-0.443,-0.4785,0.027,0.0225,-0.0105
-1.309,-1.2755,0.033,1.2925,-0.671,-0.621,-0.5265,-0.5025,-0.4865,-0.4725,-0.442,-0.4775,0.031,0.0175,-0.0075
-1.295,-1.261,0.0335,1.278,-0.664,-0.6135,-0.543,-0.507,-0.4815,-0.464,-0.433,-0.4695,0.0415,0.0385,-0.01
-1.2945,-1.253,0.041,1.274,-0.6675,-0.606,-0.56,-0.5125,-0.4835,-0.462,-0.428,-0.4645,0.047,0.05,-0.0085
-1.293,-1.242,0.0505,1.2675,-0.6715,-0.5955,-0.5755,-0.52,-0.4835,-0.4595,-0.4235,-0.4575,0.048,0.073,-0.0105
-1.2975,-1.237,0.0605,1.267,-0.679,-0.588,-0.5775,-0.5235,-0.4835,-0.4585,-0.4215,-0.454,0.0455,0.08,-0.01
-1.2855,-1.2275,0.0575,1.2565,-0.671,-0.585,-0.5765,-0.5215,-0.4805,-0.4565,-0.419,-0.4505,0.0505,0.0825,-0.004
-1.2655,-1.219,0.046,1.2425,-0.6555,-0.586,-0.591,-0.525,-0.48,-0.455,-0.4165,-0.4455,0.0585,0.086,0.003
-1.266,-1.217,0.0485,1.241,-0.657,-0.584,-0.597,-0.529,-0.4825,-0.4545,-0.4145,-0.442,0.0615,0.065,0.0125
-1.249,-1.2045,0.044,1.2265,-0.646,-0.58,-0.595,-0.528,-0.479,-0.448,-0.4065,-0.434,0.0695,0.077,0.012
-1.2435,-1.202,0.041,1.2225,-0.642,-0.58,-0.5895,-0.524,-0.4785,-0.446,-0.4025,-0.4315,0.0745,0.0795,0.017
-1.2465,-1.204,0.0425,1.225,-0.644,-0.5805,-0.608,-0.536,-0.486,-0.453,-0.4105,-0.4405,0.0695,0.079,0.027
-1.2465,-1.201,0.045,1.2235,-0.6455,-0.5775,-0.6105,-0.531,-0.4865,-0.457,-0.416,-0.445,0.0595,0.096,0.017
-1.249,-1.193,0.055,1.221,-0.652,-0.5685,-0.595,-0.5215,-0.481,-0.4515,-0.413,-0.4425,0.0575,0.1045,0.0105
-1.2475,-1.1885,0.058,1.218,-0.6525,-0.565,-0.6045,-0.5305,-0.4885,-0.4555,-0.415,-0.4435,0.0555,0.103,0.0125
-1.248,-1.1885,0.0585,1.218,-0.653,-0.5645,-0.61,-0.5395,-0.4935,-0.4595,-0.4165,-0.447,0.0505,0.114,0.0085
-1.2395,-1.1815,0.057,1.2105,-0.648,-0.562,-0.617,-0.547,-0.4925,-0.4575,-0.414,-0.447,0.0515,0.1185,0.008
-1.2385,-1.177,0.0615,1.208,-0.65,-0.5575,-0.6105,-0.54,-0.4905,-0.46,-0.415,-0.445,0.052,0.108,0.006
-1.246,-1.174,0.071,1.21,-0.6585,-0.551,-0.6055,-0.534,-0.4865,-0.4585,-0.413,-0.444,0.0515,0.1175,0.001
-1.2385,-1.1675,0.0705,1.203,-0.654,-0.548,-0.6055,-0.5265,-0.4825,-0.455,-0.4085,-0.4415,0.0545,0.1145,-0.0025
-1.239,-1.1655,0.073,1.2025,-0.6555,-0.546,-0.606,-0.5365,-0.4845,-0.4565,-0.408,-0.4385,0.059,0.1025,-0.0045
-1.243,-1.1695,0.073,1.206,-0.658,-0.548,-0.6105,-0.5345,-0.486,-0.457,-0.4085,-0.439,0.0565,0.0995,-0.0055
-1.2345,-1.1705,0.0635,1.2025,-0.6485,-0.553,-0.6045,-0.5285,-0.4865,-0.4585,-0.4105,-0.4405,0.059,0.0955,-0.0005
-1.2355,-1.1795,0.0555,1.2075,-0.6455,-0.562,-0.5965,-0.5355,-0.491,-0.464,-0.4165,-0.4445,0.0605,0.085,0.0085
-1.244,-1.197,0.046,1.2205,-0.645,-0.5755,-0.601,-0.5385,-0.499,-0.4715,-0.424,-0.4525,0.0575,0.0765,0.024
-1.2435,-1.208,0.035,1.226,-0.639,-0.5865,-0.605,-0.5365,-0.498,-0.47,-0.426,-0.4555,0.063,0.078,0.0325
-1.246,-1.2175,0.028,1.232,-0.6365,-0.5945,-0.5935,-0.533,-0.4965,-0.4685,-0.4265,-0.4565,0.065,0.076,0.0355
-1.252,-1.23,0.0215,1.241,-0.6365,-0.604,-0.5995,-0.5415,-0.5055,-0.476,-0.4345,-0.463,0.0615,0.0655,0.0465
-1.235,-1.224,0.0105,1.2295,-0.6225,-0.6065,-0.602,-0.536,-0.5015,-0.4745,-0.435,-0.4615,0.0645,0.056,0.056
-1.217,-1.2105,0.006,1.214,-0.6115,-0.602,-0.5925,-0.526,-0.495,-0.47,-0.4295,-0.453,0.0725,0.054,0.0645
-1.2125,-1.215,-0.003,1.214,-0.605,-0.609,-0.6015,-0.532,-0.501,-0.4755,-0.434,-0.4525,0.0755,0.043,0.0755
-1.2115,-1.2155,-0.0045,1.2135,-0.604,-0.61,-0.611,-0.542,-0.508,-0.481,-0.439,-0.4545,0.0755,0.0435,0.08
-1.2185,-1.2145,0.0035,1.2165,-0.611,-0.6055,-0.609,-0.534,-0.502,-0.477,-0.4335,-0.449,0.0795,0.0625,0.075
-1.213,-1.2115,0.0015,1.212,-0.607,-0.605,-0.606,-0.5275,-0.495,-0.4705,-0.4265,-0.44,0.0875,0.0665,0.0715
-1.2155,-1.208,0.007,1.2115,-0.611,-0.6,-0.6025,-0.531,-0.493,-0.466,-0.4215,-0.4335,0.0925,0.0665,0.0615
-1.226,-1.2125,0.0135,1.2195,-0.6195,-0.5995,-0.596,-0.524,-0.485,-0.457,-0.4135,-0.4265,0.091,0.0655,0.043
-1.231,-1.216,0.0145,1.2235,-0.6225,-0.6005,-0.58,-0.5145,-0.478,-0.4525,-0.4095,-0.425,0.091,0.062,0.0305
-1.2535,-1.2295,0.0235,1.242,-0.6385,-0.603,-0.571,-0.512,-0.4765,-0.454,-0.41,-0.4245,0.0905,0.0615,0.026
-1.249,-1.234,0.0145,1.2415,-0.6315,-0.6095,-0.5695,-0.4975,-0.47,-0.4475,-0.404,-0.418,0.0945,0.0485,0.025
-1.239,-1.239,-0.0005,1.239,-0.619,-0.6195,-0.56,-0.488,-0.4625,-0.4415,-0.397,-0.414,0.0995,0.0275,0.027
-1.254,-1.267,-0.0135,1.2605,-0.62,-0.64,-0.562,-0.5115,-0.481,-0.457,-0.4125,-0.4295,0.0885,0.006,0.037
-1.261,-1.282,-0.0215,1.2715,-0.6195,-0.6515,-0.5575,-0.5065,-0.4885,-0.4655,-0.422,-0.44,0.08,0.0075,0.0385
-1.2655,-1.2795,-0.0145,1.2725,-0.6255,-0.6465,-0.55,-0.4905,-0.478,-0.459,-0.418,-0.44,0.0815,0.01,0.035
-1.262,-1.278,-0.0165,1.27,-0.6225,-0.647,-0.5515,-0.502,-0.4825,-0.462,-0.423,-0.445,0.0815,-0.013,0.04
-1.2745,-1.282,-0.008,1.2785,-0.633,-0.645,-0.5465,-0.5095,-0.4845,-0.4615,-0.4205,-0.4435,0.08,-0.008,0.0365
-1.284,-1.2945,-0.0115,1.2895,-0.636,-0.6525,-0.546,-0.503,-0.4865,-0.464,-0.422,-0.4485,0.078,-0.0035,0.0385
-1.2865,-1.3045,-0.0185,1.2955,-0.634,-0.661,-0.5455,-0.5045,-0.4915,-0.4705,-0.4305,-0.4575,0.072,-0.0195,0.0485
-1.286,-1.308,-0.0225,1.297,-0.6315,-0.665,-0.556,-0.5115,-0.4985,-0.477,-0.4365,-0.456,0.069,-0.02,0.056
-1.2865,-1.32,-0.0345,1.3035,-0.626,-0.677,-0.5565,-0.509,-0.503,-0.484,-0.4415,-0.461,0.068,-0.028,0.0645
-1.299,-1.329,-0.031,1.314,-0.634,-0.6795,-0.5475,-0.5165,-0.5085,-0.4885,-0.4505,-0.471,0.057,-0.0345,0.0655
-1.2945,-1.328,-0.0345,1.3115,-0.63,-0.681,-0.54,-0.513,-0.4995,-0.479,-0.447,-0.4685,0.056,-0.032,0.058
-1.303,-1.3385,-0.0365,1.3205,-0.633,-0.687,-0.5405,-0.5055,-0.4955,-0.4765,-0.445,-0.4705,0.057,-0.036,0.0565
-1.312,-1.349,-0.0375,1.3305,-0.637,-0.693,-0.543,-0.5045,-0.501,-0.4825,-0.4495,-0.474,0.053,-0.0315,0.058
-1.3195,-1.3565,-0.0375,1.338,-0.641,-0.6965,-0.523,-0.5005,-0.499,-0.4825,-0.448,-0.4715,0.047,-0.029,0.057
-1.3215,-1.357,-0.036,1.3395,-0.6425,-0.6965,-0.532,-0.509,-0.506,-0.4885,-0.4505,-0.474,0.0425,-0.0375,0.057
-1.3065,-1.3455,-0.0395,1.326,-0.633,-0.6925,-0.5305,-0.497,-0.496,-0.4805,-0.445,-0.4735,0.041,-0.0535,0.0495
-1.3155,-1.3485,-0.0335,1.332,-0.6405,-0.691,-0.5085,-0.492,-0.4915,-0.4755,-0.4405,-0.4705,0.038,-0.0625,0.0365
-1.3335,-1.358,-0.025,1.346,-0.654,-0.691,-0.514,-0.496,-0.4935,-0.477,-0.44,-0.4705,0.0375,-0.0525,0.026
-1.343,-1.364,-0.022,1.3535,-0.6605,-0.6925,-0.5185,-0.4895,-0.491,-0.478,-0.4435,-0.4735,0.035,-0.044,0.024
-1.338,-1.362,-0.024,1.35,-0.657,-0.6925,-0.5175,-0.4955,-0.497,-0.4825,-0.448,-0.4765,0.0315,-0.04,0.025
-1.333,-1.3535,-0.021,1.343,-0.6555,-0.687,-0.5165,-0.494,-0.495,-0.4835,-0.4495,-0.481,0.03,-0.0385,0.0225
-1.3325,-1.3565,-0.024,1.3445,-0.654,-0.69,-0.526,-0.5085,-0.5055,-0.491,-0.46,-0.4875,0.027,-0.048,0.0255
-1.3265,-1.358,-0.032,1.3425,-0.647,-0.695,-0.529,-0.5035,-0.514,-0.5005,-0.4695,-0.4925,0.0235,-0.053,0.034
-1.341,-1.3685,-0.0285,1.355,-0.656,-0.698,-0.527,-0.5095,-0.5165,-0.5065,-0.476,-0.497,0.016,-0.0495,0.038
-1.3405,-1.369,-0.0285,1.355,-0.656,-0.6985,-0.53,-0.5195,-0.5155,-0.505,-0.4805,-0.502,0.0115,-0.052,0.038
-1.332,-1.3635,-0.032,1.348,-0.65,-0.6975,-0.532,-0.517,-0.517,-0.5065,-0.485,-0.505,0.005,-0.0625,0.0425
-1.345,-1.377,-0.0325,1.361,-0.656,-0.7045,-0.526,-0.518,-0.5205,-0.5115,-0.4905,-0.5095,0.0005,-0.061,0.0435
-1.3355,-1.374,-0.0385,1.355,-0.6485,-0.706,-0.527,-0.508,-0.5185,-0.5125,-0.493,-0.5155,-0.003,-0.061,0.041
-1.343,-1.378,-0.0355,1.3605,-0.6535,-0.7065,-0.529,-0.524,-0.5285,-0.5195,-0.498,-0.5225,-0.0135,-0.0715,0.036
-1.3475,-1.384,-0.037,1.366,-0.655,-0.71,-0.5275,-0.5215,-0.5275,-0.5195,-0.4985,-0.5235,-0.013,-0.073,0.0355
-1.3395,-1.378,-0.0395,1.359,-0.6495,-0.7085,-0.539,-0.5165,-0.5275,-0.517,-0.497,-0.5225,-0.012,-0.0715,0.0395
-1.3495,-1.381,-0.032,1.3655,-0.6585,-0.7065,-0.5285,-0.516,-0.529,-0.5185,-0.4955,-0.522,-0.012,-0.0645,0.0395
-1.3415,-1.3795,-0.039,1.3605,-0.651,-0.709,-0.5215,-0.515,-0.5265,-0.519,-0.4935,-0.521,-0.006,-0.0695,0.047
-1.3415,-1.377,-0.036,1.3595,-0.6525,-0.7065,-0.523,-0.5155,-0.526,-0.519,-0.4905,-0.5195,-0.0065,-0.0645,0.045
-1.344,-1.373,-0.0295,1.3585,-0.657,-0.701,-0.5265,-0.5205,-0.5245,-0.519,-0.487,-0.518,-0.0065,-0.056,0.0455
-1.329,-1.365,-0.037,1.347,-0.6455,-0.701,-0.5325,-0.5225,-0.5235,-0.516,-0.4815,-0.5145,-0.0005,-0.064,0.054
-1.329,-1.366,-0.0375,1.3475,-0.6455,-0.7015,-0.522,-0.5055,-0.514,-0.507,-0.474,-0.508,0.002,-0.067,0.051
-1.343,-1.371,-0.028,1.357,-0.657,-0.6995,-0.5215,-0.5135,-0.515,-0.5075,-0.4745,-0.508,-0.001,-0.0595,0.049
-1.339,-1.3665,-0.028,1.353,-0.655,-0.697,-0.528,-0.514,-0.518,-0.5085,-0.4745,-0.5065,0.0,-0.0465,0.051
-1.3305,-1.3715,-0.0415,1.351,-0.644,-0.706,-0.5335,-0.516,-0.5225,-0.515,-0.4815,-0.511,-0.005,-0.056,0.0545
-1.339,-1.381,-0.0425,1.36,-0.648,-0.7115,-0.5275,-0.5215,-0.528,-0.5205,-0.486,-0.5105,-0.014,-0.064,0.0515
-1.3375,-1.376,-0.039,1.3565,-0.649,-0.707,-0.5225,-0.511,-0.52,-0.515,-0.483,-0.5045,-0.012,-0.058,0.0465
-1.334,-1.374,-0.041,1.354,-0.6465,-0.707,-0.531,-0.5215,-0.527,-0.52,-0.487,-0.508,-0.0105,-0.0595,0.051
-1.347,-1.381,-0.0345,1.364,-0.656,-0.7075,-0.54,-0.5215,-0.528,-0.521,-0.4915,-0.515,-0.0165,-0.0645,0.0515
-1.342,-1.37,-0.0285,1.356,-0.6565,-0.699,-0.5285,-0.5095,-0.517,-0.512,-0.488,-0.515,-0.0115,-0.063,0.047
-1.3375,-1.359,-0.022,1.3485,-0.6575,-0.6905,-0.5075,-0.509,-0.518,-0.5095,-0.485,-0.5135,-0.009,-0.0555,0.041
-1.3465,-1.3655,-0.0195,1.356,-0.6635,-0.692,-0.515,-0.5125,-0.5225,-0.515,-0.491,-0.521,-0.0145,-0.0585,0.0435
-1.3325,-1.3595,-0.0275,1.346,-0.652,-0.6935,-0.5205,-0.5145,-0.52,-0.5115,-0.4885,-0.515,0.002,-0.064,0.05
-1.339,-1.362,-0.0235,1.3505,-0.6575,-0.6925,-0.5185,-0.5135,-0.517,-0.505,-0.483,-0.5095,0.0125,-0.056,0.047
-1.3445,-1.369,-0.025,1.357,-0.6595,-0.697,-0.519,-0.5205,-0.5245,-0.5115,-0.489,-0.518,0.0085,-0.056,0.051
-1.3325,-1.36,-0.028,1.3465,-0.652,-0.6935,-0.5155,-0.5095,-0.52,-0.5085,-0.4855,-0.509,0.0115,-0.06,0.0515
-1.334,-1.3575,-0.0235,1.346,-0.655,-0.6905,-0.5175,-0.5035,-0.5115,-0.5025,-0.4795,-0.5005,0.018,-0.0675,0.0455
-1.3275,-1.3535,-0.0265,1.3405,-0.6505,-0.6895,-0.5185,-0.5155,-0.513,-0.5,-0.4755,-0.495,0.024,-0.068,0.051
-1.3165,-1.346,-0.0305,1.331,-0.6425,-0.688,-0.5185,-0.506,-0.509,-0.497,-0.472,-0.4885,0.024,-0.065,0.0525
-1.3205,-1.3525,-0.0325,1.3365,-0.644,-0.692,-0.514,-0.501,-0.508,-0.496,-0.4705,-0.4855,0.023,-0.0625,0.05
-1.3245,-1.3595,-0.036,1.342,-0.644,-0.6975,-0.504,-0.495,-0.5035,-0.491,-0.47,-0.486,0.018,-0.053,0.0495
-1.324,-1.366,-0.0425,1.345,-0.6405,-0.704,-0.5125,-0.5,-0.5025,-0.489,-0.4685,-0.483,0.0215,-0.063,0.053
-1.334,-1.373,-0.0395,1.3535,-0.647,-0.706,-0.524,-0.5075,-0.5065,-0.4905,-0.465,-0.4785,0.0255,-0.058,0.0525
-1.332,-1.3705,-0.039,1.351,-0.646,-0.7045,-0.509,-0.4945,-0.4995,-0.4885,-0.467,-0.485,0.0165,-0.052,0.0505
-1.3385,-1.375,-0.0365,1.3565,-0.6505,-0.7055,-0.4975,-0.4955,-0.506,-0.4965,-0.473,-0.4935,0.011,-0.056,0.0525
-1.348,-1.3805,-0.0325,1.364,-0.6575,-0.706,-0.5105,-0.5025,-0.511,-0.5035,-0.478,-0.4965,0.013,-0.053,0.054
-1.3415,-1.372,-0.0305,1.3565,-0.655,-0.701,-0.515,-0.5055,-0.5065,-0.496,-0.473,-0.4905,0.0145,-0.0505,0.054
-1.3405,-1.367,-0.0275,1.354,-0.6565,-0.697,-0.5145,-0.5095,-0.512,-0.4985,-0.4735,-0.4915,0.013,-0.0545,0.0535
-1.3485,-1.377,-0.029,1.363,-0.6595,-0.7025,-0.53,-0.5145,-0.516,-0.5035,-0.4795,-0.496,0.0135,-0.062,0.0545
-1.346,-1.377,-0.0315,1.3615,-0.657,-0.704,-0.5095,-0.5075,-0.513,-0.5025,-0.4785,-0.4965,0.0135,-0.055,0.0525
-1.3295,-1.364,-0.035,1.347,-0.647,-0.6995,-0.4975,-0.49,-0.498,-0.49,-0.469,-0.494,0.0185,-0.0535,0.0505
-1.3315,-1.3685,-0.0375,1.35,-0.6465,-0.7025,-0.509,-0.49,-0.4965,-0.485,-0.465,-0.497,0.016,-0.0535,0.044
-1.343,-1.3785,-0.036,1.361,-0.6535,-0.707,-0.486,-0.487,-0.4945,-0.483,-0.4685,-0.5065,0.0,-0.0585,0.029
-1.3525,-1.3835,-0.031,1.368,-0.6605,-0.707,-0.4735,-0.4745,-0.4825,-0.4745,-0.469,-0.5145,-0.01,-0.071,0.02
-1.337,-1.3775,-0.041,1.357,-0.6475,-0.709,-0.48,-0.4635,-0.471,-0.466,-0.4655,-0.514,-0.0015,-0.0795,0.009
-1.3255,-1.3735,-0.0485,1.349,-0.638,-0.7105,-0.465,-0.4395,-0.449,-0.45,-0.4585,-0.513,0.0015,-0.089,0.0
-1.345,-1.387,-0.0425,1.366,-0.651,-0.7145,-0.4495,-0.425,-0.4325,-0.435,-0.452,-0.5125,0.0005,-0.085,-0.0095
-1.3395,-1.3925,-0.0535,1.366,-0.643,-0.7225,-0.4375,-0.4065,-0.404,-0.4075,-0.433,-0.5025,0.0095,-0.087,-0.0205
-1.349,-1.405,-0.0565,1.377,-0.646,-0.7305,-0.4195,-0.388,-0.381,-0.3855,-0.4215,-0.5035,0.0085,-0.107,-0.0285
-1.348,-1.416,-0.0685,1.382,-0.6395,-0.742,-0.395,-0.3495,-0.342,-0.3525,-0.403,-0.496,0.0155,-0.1165,-0.049
-1.336,-1.428,-0.0925,1.382,-0.6215,-0.76,-0.37,-0.3085,-0.295,-0.315,-0.386,-0.497,0.019,-0.114,-0.065
-1.3435,-1.4475,-0.104,1.3955,-0.6195,-0.7755,-0.3565,-0.2875,-0.2605,-0.283,-0.3705,-0.4955,0.029,-0.1165,-0.081
-1.343,-1.449,-0.1065,1.396,-0.618,-0.7775,-0.333,-0.248,-0.2115,-0.231,-0.3325,-0.475,0.0515,-0.118,-0.1015
-1.338,-1.4495,-0.112,1.3935,-0.613,-0.7805,-0.316,-0.216,-0.1625,-0.176,-0.288,-0.456,0.0735,-0.1265,-0.121
-1.307,-1.441,-0.1345,1.374,-0.587,-0.7875,-0.314,-0.196,-0.12,-0.124,-0.24,-0.428,0.111,-0.1395,-0.1325
-1.2855,-1.4285,-0.1435,1.357,-0.571,-0.786,-0.301,-0.161,-0.0685,-0.0635,-0.19,-0.4025,0.14,-0.1355,-0.153
-1.3,-1.444,-0.1445,1.372,-0.578,-0.794,-0.282,-0.136,-0.016,-0.001,-0.145,-0.3855,0.1575,-0.146,-0.1835
-1.2915,-1.443,-0.152,1.367,-0.57,-0.7975,-0.285,-0.1035,0.0305,0.0615,-0.0915,-0.3595,0.188,-0.155,-0.1975
-1.257,-1.4195,-0.163,1.338,-0.547,-0.791,-0.2675,-0.055,0.0965,0.139,-0.0225,-0.318,0.2345,-0.137,-0.2175
-1.2565,-1.435,-0.179,1.3455,-0.539,-0.8065,-0.247,-0.0235,0.1585,0.211,0.035,-0.2925,0.266,-0.1485,-0.2345
-1.2215,-1.4405,-0.2195,1.331,-0.5015,-0.8295,-0.2225,0.055,0.252,0.308,0.105,-0.264,0.3085,-0.175,-0.2595
-1.205,-1.457,-0.2525,1.331,-0.4765,-0.8545,-0.1785,0.1205,0.3365,0.394,0.164,-0.2445,0.3375,-0.1925,-0.2905
-1.203,-1.4695,-0.2665,1.336,-0.4685,-0.8675,-0.156,0.171,0.4085,0.472,0.2215,-0.2255,0.362,-0.201,-0.3095
-1.179,-1.465,-0.2865,1.322,-0.4465,-0.8755,-0.125,0.2395,0.4945,0.5615,0.2875,-0.1975,0.3985,-0.2055,-0.335
-1.1755,-1.483,-0.308,1.329,-0.434,-0.8955,-0.103,0.278,0.5435,0.6205,0.3335,-0.1845,0.4195,-0.2285,-0.3565
-1.143,-1.482,-0.34,1.3125,-0.402,-0.9105,-0.089,0.3215,0.621,0.7075,0.405,-0.1495,0.464,-0.244,-0.3755
-1.1355,-1.49,-0.355,1.313,-0.3905,-0.922,-0.062,0.3555,0.6915,0.7905,0.473,-0.1205,0.5005,-0.2565,-0.396
-1.1085,-1.4795,-0.3715,1.294,-0.369,-0.925,-0.043,0.421,0.762,0.8705,0.5445,-0.0825,0.545,-0.247,-0.415
-1.088,-1.4685,-0.381,1.278,-0.354,-0.9245,-0.02,0.488,0.8455,0.96,0.614,-0.0445,0.5835,-0.229,-0.4455
-1.0955,-1.477,-0.382,1.286,-0.357,-0.9295,0.013,0.536,0.9035,1.0215,0.6565,-0.036,0.594,-0.2415,-0.478
-1.0725,-1.4845,-0.4125,1.2785,-0.33,-0.9485,0.0255,0.5675,0.9535,1.071,0.6895,-0.0295,0.6115,-0.2565,-0.4975
-1.081,-1.5115,-0.431,1.2965,-0.3255,-0.971,0.0455,0.5885,0.98,1.096,0.702,-0.0305,0.6145,-0.2745,-0.5065
-1.0885,-1.5195,-0.4315,1.3045,-0.329,-0.9755,0.0705,0.6195,0.9985,1.1075,0.711,-0.0285,0.6135,-0.283,-0.5155
-1.0855,-1.5245,-0.4395,1.305,-0.323,-0.982,0.0835,0.6185,0.987,1.0845,0.6875,-0.047,0.593,-0.291,-0.52
-1.0925,-1.5315,-0.44,1.312,-0.3265,-0.9855,0.087,0.616,0.945,1.0205,0.6285,-0.0835,0.553,-0.3045,-0.506
