i,ii,iii,avr,avl,avf,v1,v2,v3,v4,v5,v6,vx,vy,vz
0.0005,0.115,0.1145,-0.058,-0.057,0.115,-0.738,-0.7515,-0.546,-0.372,0.072,0.139,0.133,0.274,0.517
-0.0225,0.102,0.1245,-0.04,-0.073,0.1135,-0.714,-0.716,-0.5185,-0.3685,0.04,0.11,0.1045,0.2655,0.503
-0.035,0.097,0.132,-0.031,-0.083,0.1145,-0.68,-0.6785,-0.484,-0.3535,0.0285,0.0925,0.09,0.2665,0.4875
-0.047,0.0915,0.138,-0.0225,-0.092,0.1145,-0.662,-0.653,-0.4555,-0.3345,0.025,0.084,0.085,0.2585,0.473
-0.07,0.084,0.154,-0.007,-0.1115,0.119,-0.6305,-0.6115,-0.419,-0.3165,0.014,0.07,0.0725,0.244,0.4515
-0.0925,0.071,0.164,0.0105,-0.128,0.1175,-0.592,-0.5695,-0.38,-0.3005,-0.0005,0.047,0.054,0.2195,0.428
-0.109,0.0495,0.1585,0.0295,-0.1335,0.104,-0.5515,-0.528,-0.3475,-0.2885,-0.017,0.024,0.0395,0.201,0.4075
-0.1255,0.0215,0.147,0.052,-0.136,0.0845,-0.5075,-0.4855,-0.3165,-0.277,-0.0355,0.0055,0.0275,0.185,0.3885
-0.1365,0.002,0.1385,0.067,-0.1375,0.0705,-0.4705,-0.45,-0.2865,-0.2635,-0.045,-0.01,0.0165,0.176,0.371
-0.1365,-0.003,0.1335,0.0695,-0.135,0.0655,-0.444,-0.4225,-0.2615,-0.25,-0.051,-0.021,0.015,0.1725,0.3565
-0.142,-0.008,0.134,0.075,-0.1375,0.063,-0.415,-0.3915,-0.233,-0.233,-0.0515,-0.026,0.015,0.1675,0.339
-0.1435,-0.008,0.1355,0.0755,-0.1395,0.064,-0.382,-0.363,-0.2085,-0.218,-0.0505,-0.0295,0.0155,0.1685,0.322
-0.141,-0.0005,0.1405,0.0705,-0.1405,0.07,-0.361,-0.3465,-0.1915,-0.204,-0.0465,-0.0285,0.016,0.17,0.31
-0.1485,-0.0025,0.1455,0.0755,-0.147,0.0715,-0.3435,-0.328,-0.1775,-0.192,-0.0385,-0.027,0.0135,0.1675,0.2965
-0.1445,-0.0095,0.1345,0.077,-0.139,0.0625,-0.327,-0.313,-0.162,-0.1815,-0.0335,-0.0265,0.0175,0.1605,0.2855
-0.1395,-0.0105,0.129,0.075,-0.134,0.0595,-0.312,-0.301,-0.146,-0.17,-0.029,-0.024,0.0205,0.149,0.2785
-0.149,-0.022,0.127,0.0855,-0.138,0.0525,-0.2975,-0.286,-0.134,-0.1625,-0.0265,-0.026,0.023,0.135,0.269
-0.1515,-0.037,0.1145,0.094,-0.1325,0.0385,-0.277,-0.265,-0.115,-0.1505,-0.0225,-0.024,0.0295,0.1195,0.2525
-0.151,-0.038,0.1135,0.094,-0.132,0.038,-0.259,-0.245,-0.102,-0.14,-0.0175,-0.023,0.03,0.1095,0.2375
-0.147,-0.0355,0.1115,0.091,-0.129,0.038,-0.2375,-0.2215,-0.0835,-0.1255,-0.01,-0.022,0.0315,0.097,0.2225
-0.14,-0.038,0.102,0.0885,-0.1205,0.032,-0.208,-0.194,-0.0555,-0.104,-0.0015,-0.018,0.038,0.0795,0.202
-0.1425,-0.0505,0.092,0.0965,-0.117,0.0205,-0.19,-0.175,-0.0385,-0.091,0.0015,-0.0205,0.041,0.069,0.185
-0.1475,-0.066,0.082,0.1065,-0.1145,0.008,-0.1695,-0.152,-0.019,-0.078,0.004,-0.0225,0.0455,0.0535,0.1685
-0.149,-0.078,0.071,0.113,-0.1095,-0.0035,-0.149,-0.13,-0.0005,-0.0675,0.0065,-0.024,0.05,0.036,0.15
-0.1455,-0.0765,0.0685,0.1105,-0.107,-0.004,-0.14,-0.1205,0.006,-0.0635,0.007,-0.027,0.0495,0.0345,0.1375
-0.1425,-0.075,0.067,0.1085,-0.1045,-0.004,-0.1305,-0.11,0.013,-0.0605,0.0065,-0.0285,0.056,0.0335,0.13
-0.1455,-0.088,0.0575,0.1165,-0.101,-0.015,-0.1195,-0.098,0.0225,-0.0575,0.005,-0.0325,0.058,0.023,0.1235
-0.1505,-0.0995,0.051,0.125,-0.1005,-0.024,-0.1085,-0.0895,0.028,-0.0565,0.0005,-0.036,0.054,0.009,0.1185
-0.151,-0.11,0.041,0.13,-0.096,-0.0345,-0.1,-0.081,0.034,-0.0545,-0.0025,-0.035,0.0545,0.004,0.118
-0.15,-0.1145,0.0355,0.132,-0.0925,-0.0395,-0.097,-0.0755,0.036,-0.0525,-0.0025,-0.0365,0.0565,0.007,0.1185
-0.15,-0.1195,0.0305,0.1345,-0.09,-0.0445,-0.095,-0.0755,0.035,-0.053,-0.003,-0.038,0.0585,0.0095,0.1195
-0.151,-0.1235,0.0275,0.137,-0.089,-0.048,-0.0925,-0.0715,0.0375,-0.051,-0.0045,-0.038,0.057,0.0085,0.119
-0.148,-0.1215,0.0265,0.1345,-0.087,-0.0475,-0.093,-0.0715,0.0385,-0.0505,-0.0055,-0.041,0.0545,0.01,0.1135
-0.1515,-0.1255,0.026,0.138,-0.0885,-0.0495,-0.0915,-0.071,0.0355,-0.052,-0.0075,-0.043,0.0515,0.004,0.11
-0.157,-0.1345,0.023,0.1455,-0.09,-0.0555,-0.0825,-0.066,0.041,-0.0505,-0.006,-0.0415,0.051,-0.013,0.1135
-0.1535,-0.139,0.0145,0.146,-0.0835,-0.0625,-0.0775,-0.062,0.0465,-0.047,-0.0045,-0.0415,0.051,-0.022,0.1175
-0.153,-0.1435,0.0095,0.148,-0.081,-0.067,-0.0735,-0.059,0.0475,-0.0475,-0.007,-0.0435,0.048,-0.026,0.1175
-0.151,-0.145,0.006,0.148,-0.0785,-0.0695,-0.0745,-0.0545,0.051,-0.043,-0.004,-0.042,0.048,-0.0245,0.1155
-0.1545,-0.145,0.0095,0.15,-0.082,-0.068,-0.0735,-0.05,0.053,-0.0375,-0.0015,-0.0405,0.0485,-0.028,0.1115
-0.156,-0.147,0.0095,0.1515,-0.0825,-0.0685,-0.067,-0.051,0.0525,-0.04,-0.001,-0.0395,0.048,-0.036,0.111
-0.1545,-0.144,0.0105,0.1495,-0.082,-0.067,-0.067,-0.049,0.0525,-0.0395,0.0005,-0.0375,0.0505,-0.036,0.113
-0.154,-0.145,0.009,0.1495,-0.0815,-0.068,-0.065,-0.0465,0.054,-0.038,0.0005,-0.0385,0.0525,-0.0395,0.112
-0.1535,-0.1465,0.007,0.15,-0.08,-0.07,-0.0625,-0.0435,0.0565,-0.0375,-0.0005,-0.0405,0.0515,-0.042,0.11
-0.1545,-0.1455,0.009,0.15,-0.0815,-0.0685,-0.061,-0.044,0.0585,-0.0375,-0.0035,-0.042,0.0505,-0.038,0.109
-0.1515,-0.1385,0.013,0.145,-0.0825,-0.063,-0.0625,-0.045,0.058,-0.037,-0.0025,-0.0435,0.0495,-0.033,0.105
-0.1565,-0.14,0.017,0.148,-0.0865,-0.0615,-0.0645,-0.044,0.057,-0.0365,-0.004,-0.0445,0.05,-0.035,0.102
-0.1555,-0.1415,0.014,0.1485,-0.0845,-0.0635,-0.0645,-0.045,0.0575,-0.037,-0.0045,-0.0455,0.0495,-0.0315,0.103
-0.1565,-0.1375,0.019,0.1465,-0.0875,-0.059,-0.0635,-0.043,0.057,-0.0365,-0.003,-0.0465,0.0485,-0.0255,0.1015
-0.1595,-0.141,0.018,0.15,-0.0885,-0.0615,-0.062,-0.0435,0.056,-0.0395,-0.0075,-0.048,0.046,-0.03,0.102
-0.1555,-0.1435,0.012,0.149,-0.0835,-0.0655,-0.0665,-0.0445,0.0555,-0.042,-0.0125,-0.0525,0.0435,-0.0265,0.102
-0.1555,-0.146,0.009,0.1505,-0.082,-0.0685,-0.063,-0.042,0.057,-0.04,-0.0155,-0.053,0.0445,-0.028,0.1025
-0.153,-0.147,0.006,0.15,-0.0795,-0.0705,-0.059,-0.0395,0.059,-0.0385,-0.015,-0.0535,0.0445,-0.026,0.102
-0.156,-0.1475,0.0085,0.152,-0.082,-0.0695,-0.061,-0.0415,0.057,-0.041,-0.016,-0.055,0.043,-0.0175,0.1015
-0.154,-0.1495,0.005,0.1515,-0.0795,-0.072,-0.0585,-0.04,0.059,-0.039,-0.015,-0.053,0.044,-0.0265,0.101
-0.1515,-0.16,-0.008,0.1555,-0.0715,-0.084,-0.0545,-0.0365,0.062,-0.0395,-0.0135,-0.053,0.043,-0.0395,0.1025
-0.148,-0.164,-0.0155,0.1555,-0.066,-0.0895,-0.048,-0.03,0.068,-0.0365,-0.0115,-0.052,0.043,-0.0435,0.1045
-0.1445,-0.161,-0.0165,0.1525,-0.0635,-0.089,-0.046,-0.026,0.0705,-0.0335,-0.011,-0.0525,0.044,-0.0465,0.103
-0.1485,-0.166,-0.0175,0.157,-0.065,-0.0915,-0.0465,-0.027,0.07,-0.0325,-0.0075,-0.0495,0.0455,-0.0475,0.1025
-0.144,-0.1615,-0.0175,0.1525,-0.063,-0.0895,-0.044,-0.024,0.072,-0.028,-0.0025,-0.046,0.0475,-0.0465,0.0995
-0.14,-0.157,-0.017,0.148,-0.061,-0.087,-0.0475,-0.028,0.068,-0.031,-0.0065,-0.0495,0.046,-0.05,0.0985
-0.1475,-0.1595,-0.012,0.153,-0.0675,-0.0855,-0.049,-0.027,0.0665,-0.0345,-0.005,-0.0475,0.0475,-0.051,0.099
-0.161,-0.163,-0.002,0.162,-0.079,-0.0825,-0.049,-0.03,0.0635,-0.0365,-0.0045,-0.048,0.0475,-0.053,0.098
-0.165,-0.1605,0.0045,0.1625,-0.0845,-0.078,-0.0485,-0.0315,0.0645,-0.0365,-0.0075,-0.0485,0.0455,-0.052,0.0965
-0.156,-0.157,-0.001,0.156,-0.0775,-0.079,-0.0505,-0.028,0.0675,-0.037,-0.006,-0.0495,0.047,-0.0475,0.096
-0.159,-0.1515,0.0075,0.155,-0.083,-0.072,-0.052,-0.0325,0.0635,-0.035,-0.006,-0.0505,0.0475,-0.045,0.092
-0.1615,-0.1455,0.016,0.153,-0.0885,-0.0645,-0.0535,-0.0345,0.0615,-0.034,-0.0045,-0.049,0.0505,-0.0425,0.09
-0.1595,-0.1445,0.015,0.152,-0.087,-0.065,-0.058,-0.0325,0.0625,-0.041,-0.006,-0.0485,0.052,-0.038,0.0925
-0.1635,-0.142,0.021,0.1525,-0.092,-0.0605,-0.054,-0.032,0.0625,-0.043,-0.0095,-0.0495,0.05,-0.033,0.0905
-0.1645,-0.146,0.0185,0.155,-0.091,-0.064,-0.05,-0.034,0.0595,-0.045,-0.012,-0.0545,0.0475,-0.0305,0.091
-0.16,-0.1445,0.015,0.152,-0.0875,-0.065,-0.05,-0.033,0.0595,-0.0465,-0.0145,-0.0555,0.047,-0.0275,0.0925
-0.1615,-0.1465,0.0145,0.1535,-0.088,-0.066,-0.0525,-0.032,0.0595,-0.048,-0.0165,-0.059,0.0445,-0.0275,0.0925
-0.168,-0.156,0.012,0.1615,-0.0895,-0.072,-0.054,-0.034,0.0565,-0.0505,-0.0185,-0.063,0.0435,-0.0315,0.0935
-0.1615,-0.152,0.0095,0.1565,-0.0855,-0.071,-0.0525,-0.032,0.059,-0.048,-0.0205,-0.061,0.0465,-0.0235,0.095
-0.164,-0.151,0.0125,0.157,-0.088,-0.069,-0.0515,-0.0285,0.0605,-0.048,-0.022,-0.0635,0.042,-0.031,0.0955
-0.1645,-0.158,0.0065,0.161,-0.0855,-0.0755,-0.044,-0.0245,0.064,-0.0475,-0.0225,-0.063,0.04,-0.046,0.0975
-0.1575,-0.1635,-0.006,0.1605,-0.0755,-0.085,-0.039,-0.0215,0.0685,-0.044,-0.024,-0.0625,0.04,-0.0485,0.101
-0.157,-0.1635,-0.0065,0.16,-0.075,-0.085,-0.038,-0.0185,0.071,-0.043,-0.0205,-0.061,0.041,-0.0495,0.1
-0.1545,-0.1635,-0.009,0.1585,-0.0725,-0.086,-0.037,-0.0165,0.072,-0.042,-0.0185,-0.0605,0.043,-0.0545,0.1
-0.1575,-0.169,-0.0115,0.1625,-0.073,-0.09,-0.035,-0.0155,0.072,-0.039,-0.0185,-0.0605,0.0425,-0.065,0.101
-0.1545,-0.1655,-0.011,0.16,-0.0715,-0.0885,-0.034,-0.015,0.073,-0.037,-0.0135,-0.055,0.046,-0.0635,0.099
-0.153,-0.1655,-0.012,0.159,-0.0705,-0.0885,-0.0345,-0.0145,0.0725,-0.0375,-0.01,-0.0535,0.048,-0.067,0.0965
-0.158,-0.1685,-0.0105,0.1625,-0.0735,-0.0895,-0.031,-0.012,0.0745,-0.035,-0.009,-0.0515,0.046,-0.076,0.0965
-0.155,-0.168,-0.0125,0.161,-0.071,-0.0905,-0.03,-0.0125,0.0765,-0.0315,-0.012,-0.0505,0.046,-0.074,0.097
-0.1505,-0.169,-0.018,0.1595,-0.066,-0.0935,-0.031,-0.0135,0.076,-0.0345,-0.011,-0.05,0.0475,-0.071,0.0955
-0.152,-0.1645,-0.012,0.158,-0.07,-0.0885,-0.031,-0.011,0.0755,-0.036,-0.0115,-0.0495,0.0485,-0.067,0.096
-0.1555,-0.1625,-0.007,0.1585,-0.074,-0.0845,-0.033,-0.013,0.073,-0.038,-0.0135,-0.052,0.0485,-0.0635,0.0985
-0.1525,-0.164,-0.0115,0.158,-0.0705,-0.0875,-0.035,-0.0145,0.0705,-0.0415,-0.0155,-0.0525,0.05,-0.06,0.1015
-0.1505,-0.162,-0.0115,0.156,-0.0695,-0.087,-0.037,-0.0155,0.0685,-0.0445,-0.018,-0.0545,0.0505,-0.0565,0.102
-0.158,-0.1655,-0.0075,0.1615,-0.075,-0.0865,-0.0365,-0.0175,0.069,-0.046,-0.0195,-0.057,0.048,-0.0525,0.1005
-0.161,-0.1665,-0.0055,0.163,-0.077,-0.086,-0.035,-0.0165,0.0685,-0.0465,-0.0215,-0.059,0.049,-0.0485,0.1025
-0.1595,-0.165,-0.006,0.162,-0.0765,-0.085,-0.0335,-0.015,0.0695,-0.047,-0.0195,-0.059,0.0515,-0.0515,0.103
-0.1605,-0.1625,-0.002,0.161,-0.079,-0.082,-0.032,-0.0155,0.071,-0.0465,-0.019,-0.057,0.0535,-0.053,0.1025
-0.1565,-0.1595,-0.003,0.158,-0.077,-0.081,-0.034,-0.0175,0.0665,-0.05,-0.0205,-0.0585,0.054,-0.05,0.1025
-0.1555,-0.1615,-0.006,0.158,-0.075,-0.0835,-0.035,-0.017,0.066,-0.049,-0.02,-0.059,0.051,-0.05,0.1
-0.16,-0.1695,-0.0095,0.1645,-0.075,-0.0895,-0.028,-0.013,0.0695,-0.048,-0.02,-0.0605,0.0475,-0.06,0.1005
-0.165,-0.1785,-0.014,0.1715,-0.075,-0.0965,-0.025,-0.0095,0.07,-0.05,-0.0225,-0.0635,0.043,-0.074,0.1015
-0.161,-0.176,-0.015,0.1685,-0.073,-0.0955,-0.0245,-0.008,0.072,-0.0465,-0.0215,-0.0625,0.0415,-0.0685,0.099
-0.156,-0.175,-0.019,0.1655,-0.0685,-0.097,-0.023,-0.007,0.073,-0.045,-0.022,-0.0635,0.0385,-0.0675,0.0965
-0.1625,-0.179,-0.0165,0.1705,-0.0725,-0.0975,-0.021,-0.0065,0.0755,-0.045,-0.023,-0.0655,0.034,-0.073,0.0945
-0.164,-0.1745,-0.011,0.169,-0.0765,-0.093,-0.02,-0.006,0.0755,-0.046,-0.021,-0.064,0.0345,-0.0815,0.0925
-0.1635,-0.1725,-0.009,0.1675,-0.077,-0.0905,-0.0185,-0.005,0.074,-0.047,-0.022,-0.0645,0.032,-0.089,0.092
-0.167,-0.1745,-0.0075,0.1705,-0.0795,-0.091,-0.017,-0.0045,0.0745,-0.0455,-0.0225,-0.0635,0.03,-0.0875,0.095
-0.164,-0.1725,-0.009,0.168,-0.077,-0.0905,-0.0185,-0.004,0.076,-0.0465,-0.0215,-0.062,0.0315,-0.0835,0.0995
-0.1665,-0.171,-0.0045,0.1685,-0.081,-0.0875,-0.019,-0.0045,0.0785,-0.0465,-0.021,-0.0645,0.03,-0.075,0.101
-0.166,-0.165,0.0015,0.1655,-0.0835,-0.0815,-0.024,-0.009,0.074,-0.0485,-0.0235,-0.065,0.0305,-0.071,0.098
-0.164,-0.162,0.002,0.1625,-0.0825,-0.08,-0.0255,-0.0115,0.071,-0.05,-0.025,-0.0655,0.032,-0.0715,0.0945
-0.1695,-0.166,0.0035,0.1675,-0.086,-0.081,-0.0225,-0.008,0.072,-0.05,-0.0245,-0.0645,0.032,-0.0705,0.094
-0.1695,-0.1685,0.0005,0.1685,-0.0845,-0.084,-0.0215,-0.008,0.0695,-0.0525,-0.0255,-0.064,0.033,-0.0665,0.094
-0.169,-0.1705,-0.002,0.1695,-0.0835,-0.086,-0.0205,-0.009,0.069,-0.055,-0.0275,-0.0675,0.0305,-0.0645,0.094
-0.1645,-0.1715,-0.007,0.1675,-0.0785,-0.089,-0.02,-0.009,0.069,-0.0555,-0.031,-0.07,0.031,-0.063,0.0945
-0.1655,-0.1735,-0.0085,0.1695,-0.0785,-0.091,-0.021,-0.01,0.0695,-0.0565,-0.031,-0.0715,0.032,-0.059,0.096
-0.17,-0.175,-0.0055,0.1725,-0.082,-0.0905,-0.0235,-0.009,0.0705,-0.0555,-0.0295,-0.071,0.0325,-0.06,0.096
-0.168,-0.1715,-0.0035,0.1695,-0.082,-0.0875,-0.021,-0.0065,0.071,-0.0525,-0.0265,-0.0685,0.035,-0.059,0.0975
-0.164,-0.1695,-0.006,0.1665,-0.079,-0.0875,-0.0195,-0.002,0.074,-0.0495,-0.0235,-0.0645,0.0375,-0.056,0.0985
-0.1615,-0.1765,-0.0155,0.169,-0.073,-0.096,-0.0175,-0.0005,0.077,-0.05,-0.025,-0.064,0.0385,-0.063,0.101
-0.163,-0.1845,-0.021,0.1735,-0.0705,-0.1025,-0.0125,0.0035,0.0785,-0.05,-0.0275,-0.0665,0.0375,-0.068,0.1075
-0.1625,-0.1865,-0.0235,0.174,-0.069,-0.105,-0.01,0.0065,0.079,-0.0495,-0.028,-0.066,0.039,-0.071,0.1095
-0.157,-0.1845,-0.0275,0.1705,-0.0645,-0.106,-0.01,0.006,0.0805,-0.048,-0.0265,-0.0645,0.0405,-0.0785,0.1105
-0.154,-0.1875,-0.0335,0.171,-0.06,-0.1105,-0.0095,0.0105,0.083,-0.0455,-0.026,-0.062,0.04,-0.084,0.1085
-0.1645,-0.192,-0.0275,0.1775,-0.068,-0.1095,-0.005,0.0095,0.0815,-0.0455,-0.0245,-0.061,0.039,-0.0915,0.105
-0.1625,-0.183,-0.0205,0.1725,-0.0705,-0.102,-0.0055,0.0115,0.0815,-0.0425,-0.0205,-0.0585,0.04,-0.0915,0.102
-0.159,-0.177,-0.0185,0.168,-0.07,-0.098,-0.007,0.0125,0.083,-0.0415,-0.0175,-0.057,0.0435,-0.0895,0.102
-0.1595,-0.1785,-0.019,0.169,-0.07,-0.099,-0.0105,0.0085,0.08,-0.0405,-0.0175,-0.058,0.0465,-0.0915,0.102
-0.157,-0.1775,-0.0205,0.167,-0.068,-0.099,-0.013,0.0085,0.0765,-0.0425,-0.019,-0.0585,0.0515,-0.0925,0.1015
-0.163,-0.1705,-0.008,0.1665,-0.0775,-0.0895,-0.0145,0.006,0.074,-0.0455,-0.021,-0.0605,0.055,-0.0815,0.103
-0.1635,-0.1665,-0.0035,0.1645,-0.08,-0.085,-0.0165,0.0015,0.07,-0.047,-0.021,-0.062,0.053,-0.0745,0.098
-0.1675,-0.17,-0.0025,0.1685,-0.0825,-0.086,-0.0165,-0.0015,0.0675,-0.049,-0.023,-0.0645,0.049,-0.0755,0.096
-0.1575,-0.1595,-0.002,0.1585,-0.0775,-0.081,-0.0145,0.001,0.0715,-0.0455,-0.022,-0.063,0.0485,-0.0675,0.0965
-0.1485,-0.153,-0.0045,0.1505,-0.0715,-0.079,-0.0135,0.003,0.0725,-0.0475,-0.022,-0.0625,0.047,-0.0635,0.0985
-0.1575,-0.162,-0.0045,0.1595,-0.0765,-0.083,-0.016,0.0005,0.069,-0.055,-0.029,-0.068,0.0465,-0.0625,0.102
-0.1595,-0.167,-0.0075,0.163,-0.0755,-0.087,-0.0155,0.001,0.0655,-0.061,-0.0335,-0.0725,0.043,-0.063,0.102
-0.161,-0.169,-0.008,0.165,-0.0765,-0.0885,-0.0145,0.003,0.0665,-0.064,-0.0375,-0.0755,0.038,-0.065,0.101
-0.1605,-0.168,-0.0075,0.164,-0.0765,-0.0875,-0.0135,0.0035,0.0685,-0.0665,-0.041,-0.077,0.035,-0.0645,0.0965
-0.1665,-0.1725,-0.006,0.1695,-0.08,-0.089,-0.008,0.005,0.0675,-0.0665,-0.0425,-0.0795,0.029,-0.0695,0.0945
-0.167,-0.179,-0.012,0.1725,-0.0775,-0.0955,-0.0045,0.0105,0.074,-0.063,-0.0415,-0.0795,0.0265,-0.07,0.0995
-0.1695,-0.1835,-0.0145,0.176,-0.077,-0.099,0.0005,0.0175,0.08,-0.0585,-0.038,-0.078,0.025,-0.0775,0.1005
-0.176,-0.1895,-0.0135,0.1825,-0.081,-0.1015,0.002,0.0215,0.0825,-0.054,-0.0365,-0.0785,0.022,-0.089,0.098
-0.176,-0.1905,-0.0145,0.183,-0.0805,-0.1025,0.003,0.0195,0.0815,-0.053,-0.036,-0.079,0.022,-0.0845,0.095
-0.1755,-0.194,-0.0185,0.1845,-0.078,-0.106,0.011,0.0245,0.0835,-0.0525,-0.035,-0.0775,0.022,-0.0905,0.094
-0.171,-0.1935,-0.0225,0.182,-0.074,-0.108,0.0095,0.0255,0.084,-0.052,-0.036,-0.077,0.024,-0.0965,0.098
-0.1685,-0.189,-0.0205,0.1785,-0.0735,-0.1045,0.009,0.0245,0.083,-0.052,-0.036,-0.076,0.026,-0.0975,0.102
-0.1735,-0.1925,-0.019,0.183,-0.077,-0.1055,0.009,0.0275,0.0855,-0.052,-0.0365,-0.0765,0.026,-0.1,0.1025
-0.178,-0.192,-0.014,0.1845,-0.0815,-0.1025,0.006,0.024,0.0835,-0.054,-0.039,-0.0785,0.028,-0.097,0.1015
-0.173,-0.1885,-0.0155,0.1805,-0.0785,-0.102,0.0085,0.025,0.0825,-0.055,-0.0375,-0.0805,0.029,-0.093,0.1
-0.1735,-0.183,-0.009,0.178,-0.082,-0.096,0.008,0.024,0.0825,-0.0525,-0.0345,-0.08,0.028,-0.0855,0.097
-0.174,-0.1775,-0.0035,0.176,-0.085,-0.0905,0.0065,0.0235,0.0825,-0.051,-0.034,-0.0765,0.029,-0.0815,0.097
-0.172,-0.178,-0.006,0.175,-0.083,-0.092,0.0035,0.0235,0.0835,-0.05,-0.0335,-0.078,0.028,-0.0845,0.0975
-0.1705,-0.178,-0.008,0.174,-0.081,-0.093,0.0045,0.0235,0.083,-0.0505,-0.034,-0.079,0.028,-0.086,0.099
-0.17,-0.1785,-0.0085,0.174,-0.0805,-0.0935,0.0065,0.025,0.0815,-0.051,-0.0345,-0.0775,0.0275,-0.0805,0.0985
-0.1675,-0.177,-0.0095,0.172,-0.079,-0.093,0.005,0.0255,0.0835,-0.0505,-0.0325,-0.077,0.0285,-0.075,0.0985
-0.168,-0.18,-0.0125,0.1735,-0.0775,-0.096,0.006,0.028,0.0855,-0.051,-0.033,-0.0775,0.027,-0.0715,0.099
-0.169,-0.1795,-0.011,0.174,-0.0785,-0.095,0.009,0.0285,0.082,-0.0525,-0.0335,-0.076,0.0255,-0.0715,0.0985
-0.1715,-0.18,-0.0085,0.1755,-0.0815,-0.094,0.0115,0.0305,0.0825,-0.0525,-0.033,-0.075,0.026,-0.073,0.097
-0.179,-0.189,-0.01,0.184,-0.0845,-0.0995,0.01,0.0305,0.084,-0.0525,-0.036,-0.0785,0.024,-0.0715,0.096
-0.175,-0.194,-0.019,0.184,-0.0775,-0.1065,0.013,0.032,0.0855,-0.052,-0.037,-0.078,0.0245,-0.0765,0.098
-0.169,-0.193,-0.0235,0.181,-0.0725,-0.1085,0.0175,0.038,0.0905,-0.048,-0.0355,-0.078,0.0245,-0.0835,0.1
-0.17,-0.196,-0.0255,0.1825,-0.072,-0.1105,0.02,0.0415,0.0935,-0.0465,-0.0355,-0.0775,0.0235,-0.0875,0.098
-0.168,-0.1935,-0.0255,0.1805,-0.071,-0.1095,0.0205,0.0425,0.0935,-0.0455,-0.035,-0.0755,0.0245,-0.088,0.097
-0.1655,-0.189,-0.0235,0.177,-0.071,-0.106,0.0215,0.0445,0.0945,-0.044,-0.034,-0.076,0.0255,-0.0895,0.096
-0.167,-0.189,-0.022,0.1775,-0.072,-0.1055,0.023,0.0455,0.096,-0.0435,-0.0295,-0.073,0.028,-0.0965,0.0945
-0.17,-0.191,-0.021,0.18,-0.0745,-0.1055,0.0215,0.0465,0.0955,-0.042,-0.028,-0.0705,0.032,-0.101,0.093
-0.176,-0.194,-0.018,0.185,-0.0785,-0.106,0.024,0.047,0.0965,-0.0415,-0.0275,-0.07,0.0335,-0.1035,0.091
-0.176,-0.191,-0.015,0.1835,-0.08,-0.103,0.024,0.048,0.097,-0.041,-0.025,-0.071,0.034,-0.1005,0.091
-0.173,-0.1895,-0.0165,0.181,-0.078,-0.103,0.021,0.0485,0.0985,-0.041,-0.0265,-0.0715,0.0365,-0.097,0.09
-0.174,-0.1835,-0.0095,0.179,-0.082,-0.0965,0.0195,0.0475,0.099,-0.0395,-0.026,-0.069,0.0365,-0.095,0.088
-0.1705,-0.178,-0.0075,0.174,-0.0815,-0.0925,0.0175,0.0495,0.0975,-0.0405,-0.027,-0.0685,0.0365,-0.0905,0.088
-0.172,-0.1775,-0.0055,0.1745,-0.083,-0.0915,0.019,0.048,0.0965,-0.043,-0.0275,-0.068,0.0355,-0.0875,0.087
-0.1715,-0.1745,-0.003,0.1725,-0.084,-0.0885,0.021,0.0495,0.0965,-0.0425,-0.0275,-0.068,0.034,-0.081,0.0855
-0.1725,-0.1735,-0.001,0.173,-0.0855,-0.0875,0.0215,0.047,0.098,-0.044,-0.0325,-0.072,0.03,-0.075,0.083
-0.173,-0.174,-0.001,0.1735,-0.086,-0.0875,0.023,0.0485,0.0965,-0.045,-0.035,-0.074,0.029,-0.071,0.0845
-0.171,-0.176,-0.0055,0.1735,-0.0825,-0.091,0.021,0.05,0.095,-0.045,-0.0355,-0.0745,0.032,-0.072,0.088
-0.1705,-0.1735,-0.003,0.172,-0.0835,-0.0885,0.0205,0.05,0.095,-0.044,-0.036,-0.0765,0.032,-0.0685,0.085
-0.1675,-0.1695,-0.002,0.168,-0.0825,-0.0855,0.023,0.054,0.0955,-0.044,-0.036,-0.0765,0.033,-0.064,0.084
-0.168,-0.169,-0.0015,0.1685,-0.083,-0.085,0.026,0.056,0.0975,-0.042,-0.035,-0.078,0.0305,-0.068,0.0845
-0.1635,-0.1755,-0.012,0.1695,-0.0755,-0.0935,0.0305,0.0605,0.1005,-0.0405,-0.0355,-0.079,0.031,-0.065,0.084
-0.166,-0.1865,-0.02,0.176,-0.0725,-0.1035,0.0305,0.063,0.1025,-0.04,-0.036,-0.0795,0.0315,-0.0765,0.085
-0.168,-0.187,-0.0185,0.1775,-0.0745,-0.103,0.0345,0.067,0.105,-0.0365,-0.033,-0.079,0.029,-0.089,0.085
-0.1665,-0.1855,-0.019,0.176,-0.0735,-0.1025,0.0385,0.068,0.1065,-0.0365,-0.034,-0.0795,0.03,-0.088,0.089
-0.1625,-0.1815,-0.019,0.172,-0.0715,-0.1005,0.039,0.0705,0.1095,-0.0345,-0.0325,-0.0785,0.0335,-0.093,0.092
-0.1615,-0.182,-0.0205,0.1715,-0.07,-0.1015,0.044,0.076,0.115,-0.029,-0.0255,-0.0715,0.035,-0.091,0.091
-0.166,-0.182,-0.017,0.1735,-0.074,-0.0995,0.046,0.0785,0.1155,-0.028,-0.025,-0.071,0.035,-0.0945,0.089
-0.165,-0.1815,-0.0165,0.173,-0.074,-0.099,0.0475,0.0795,0.116,-0.026,-0.027,-0.071,0.035,-0.103,0.0885
-0.162,-0.1815,-0.0195,0.1715,-0.071,-0.1005,0.0475,0.0805,0.1165,-0.0255,-0.0255,-0.07,0.0345,-0.1005,0.088
-0.157,-0.179,-0.0215,0.168,-0.0675,-0.1005,0.047,0.082,0.1155,-0.0255,-0.025,-0.071,0.034,-0.0975,0.0865
-0.16,-0.1765,-0.017,0.168,-0.071,-0.097,0.048,0.083,0.1175,-0.0255,-0.025,-0.0695,0.0325,-0.0925,0.084
-0.1585,-0.1695,-0.011,0.1635,-0.0735,-0.09,0.047,0.083,0.1165,-0.026,-0.025,-0.069,0.033,-0.085,0.083
-0.1565,-0.1665,-0.01,0.161,-0.073,-0.0885,0.046,0.082,0.1165,-0.025,-0.0255,-0.0675,0.0345,-0.0825,0.084
-0.16,-0.1665,-0.0065,0.163,-0.0765,-0.0865,0.0465,0.0825,0.1165,-0.027,-0.0255,-0.067,0.034,-0.0805,0.0835
-0.1625,-0.169,-0.007,0.1655,-0.0775,-0.088,0.0465,0.0815,0.1135,-0.03,-0.027,-0.07,0.0335,-0.0775,0.0855
-0.1635,-0.171,-0.008,0.167,-0.0775,-0.0895,0.0445,0.0805,0.115,-0.03,-0.028,-0.0715,0.0325,-0.069,0.0845
-0.1625,-0.173,-0.0105,0.1675,-0.076,-0.0915,0.0435,0.0815,0.1155,-0.0295,-0.026,-0.072,0.0325,-0.0675,0.082
-0.16,-0.1705,-0.0105,0.165,-0.0745,-0.0905,0.0455,0.082,0.1145,-0.0295,-0.0265,-0.0725,0.033,-0.0685,0.081
-0.159,-0.165,-0.006,0.162,-0.076,-0.086,0.047,0.084,0.1145,-0.028,-0.026,-0.071,0.035,-0.0605,0.0795
-0.1555,-0.163,-0.008,0.159,-0.0735,-0.0855,0.045,0.086,0.1145,-0.026,-0.0215,-0.068,0.0365,-0.0595,0.0785
-0.154,-0.1695,-0.0155,0.1615,-0.069,-0.0925,0.051,0.0905,0.119,-0.023,-0.022,-0.069,0.036,-0.0705,0.078
-0.1525,-0.1735,-0.021,0.163,-0.0655,-0.0975,0.0535,0.096,0.124,-0.0195,-0.021,-0.07,0.037,-0.078,0.078
-0.153,-0.17,-0.017,0.161,-0.068,-0.0935,0.0525,0.0985,0.1275,-0.0195,-0.0185,-0.07,0.0405,-0.0745,0.079
-0.1565,-0.171,-0.0145,0.1635,-0.0705,-0.0925,0.056,0.1005,0.129,-0.0175,-0.0185,-0.071,0.0415,-0.0725,0.0795
-0.153,-0.167,-0.0135,0.16,-0.0695,-0.09,0.056,0.1025,0.1295,-0.0145,-0.0175,-0.0685,0.0435,-0.0745,0.0775
-0.1545,-0.167,-0.0125,0.1605,-0.071,-0.09,0.0605,0.1055,0.133,-0.014,-0.016,-0.067,0.0425,-0.08,0.0795
-0.1555,-0.1685,-0.013,0.1615,-0.071,-0.091,0.061,0.1075,0.133,-0.014,-0.015,-0.066,0.0415,-0.0805,0.0775
-0.156,-0.1635,-0.0075,0.1595,-0.074,-0.0855,0.06,0.1075,0.1335,-0.013,-0.014,-0.064,0.0425,-0.0765,0.077
-0.1555,-0.159,-0.0035,0.157,-0.0755,-0.0815,0.062,0.1095,0.136,-0.012,-0.0125,-0.064,0.0415,-0.0745,0.077
-0.1535,-0.1575,-0.004,0.1555,-0.0745,-0.081,0.063,0.112,0.1365,-0.0125,-0.0145,-0.063,0.0425,-0.072,0.0765
-0.1495,-0.149,0.001,0.149,-0.075,-0.074,0.0585,0.1085,0.1345,-0.015,-0.0155,-0.0655,0.0435,-0.069,0.0765
-0.143,-0.139,0.004,0.141,-0.0735,-0.0675,0.0565,0.1075,0.1345,-0.014,-0.0115,-0.064,0.045,-0.063,0.0745
-0.1515,-0.144,0.0075,0.1475,-0.079,-0.068,0.0585,0.107,0.133,-0.014,-0.013,-0.0635,0.044,-0.0565,0.0755
-0.1595,-0.1525,0.007,0.1555,-0.083,-0.0725,0.054,0.105,0.1305,-0.019,-0.018,-0.0685,0.041,-0.0565,0.0745
-0.1585,-0.155,0.0035,0.1565,-0.0805,-0.076,0.0545,0.1055,0.1305,-0.019,-0.019,-0.0675,0.039,-0.057,0.0755
-0.158,-0.155,0.003,0.156,-0.0805,-0.0755,0.054,0.106,0.1305,-0.0185,-0.019,-0.0685,0.0375,-0.0455,0.077
-0.1525,-0.1525,-0.0005,0.1525,-0.076,-0.0765,0.0535,0.108,0.1335,-0.016,-0.0185,-0.068,0.0375,-0.041,0.0755
-0.1455,-0.1455,0.0,0.145,-0.0725,-0.0725,0.058,0.111,0.1375,-0.013,-0.015,-0.066,0.037,-0.0435,0.0745
-0.1485,-0.1475,0.001,0.148,-0.0745,-0.0735,0.059,0.1125,0.136,-0.0125,-0.014,-0.0645,0.039,-0.043,0.074
-0.1555,-0.1565,-0.001,0.1555,-0.077,-0.0785,0.06,0.115,0.136,-0.0125,-0.015,-0.0625,0.0395,-0.048,0.074
-0.161,-0.164,-0.0035,0.162,-0.0785,-0.0835,0.0635,0.118,0.1395,-0.0105,-0.012,-0.0615,0.04,-0.0505,0.0755
-0.1645,-0.1685,-0.004,0.1665,-0.08,-0.086,0.069,0.1225,0.1435,-0.0035,-0.008,-0.059,0.04,-0.055,0.0785
-0.1625,-0.168,-0.006,0.165,-0.078,-0.087,0.072,0.1285,0.1475,-0.0025,-0.0055,-0.0565,0.041,-0.0605,0.078
-0.162,-0.166,-0.0045,0.164,-0.0785,-0.085,0.073,0.129,0.1495,-0.001,-0.004,-0.0545,0.0445,-0.0595,0.0765
-0.1605,-0.1605,0.0,0.16,-0.08,-0.08,0.073,0.1295,0.151,0.0025,-0.0015,-0.053,0.0465,-0.0605,0.0745
-0.155,-0.1585,-0.0035,0.1565,-0.0755,-0.081,0.074,0.132,0.151,0.0015,-0.001,-0.0525,0.046,-0.063,0.0735
-0.158,-0.1575,0.0005,0.1575,-0.0785,-0.0785,0.074,0.131,0.151,0.003,-0.002,-0.053,0.0435,-0.063,0.0725
-0.1605,-0.1535,0.007,0.1565,-0.083,-0.0735,0.071,0.131,0.1505,0.004,-0.0005,-0.0515,0.043,-0.062,0.0715
-0.1565,-0.147,0.0095,0.1515,-0.083,-0.0685,0.0705,0.1315,0.1525,0.004,-0.0005,-0.051,0.0435,-0.061,0.0725
-0.1575,-0.1445,0.013,0.1505,-0.085,-0.0655,0.0715,0.131,0.1525,-0.0005,-0.0025,-0.054,0.0425,-0.0545,0.0725
-0.1605,-0.142,0.018,0.151,-0.089,-0.062,0.0695,0.13,0.1495,-0.002,-0.0045,-0.0545,0.0445,-0.044,0.07
-0.16,-0.1375,0.0225,0.149,-0.091,-0.0575,0.066,0.13,0.1495,-0.0005,-0.0045,-0.0535,0.0465,-0.041,0.069
-0.1615,-0.1375,0.024,0.1495,-0.0925,-0.057,0.0655,0.1275,0.1485,-0.003,-0.0075,-0.0555,0.0425,-0.038,0.0685
-0.162,-0.135,0.0265,0.148,-0.094,-0.054,0.063,0.126,0.15,-0.004,-0.0095,-0.0555,0.042,-0.032,0.069
-0.16,-0.1345,0.0255,0.147,-0.0925,-0.054,0.062,0.126,0.151,-0.003,-0.007,-0.055,0.045,-0.028,0.07
-0.16,-0.137,0.023,0.1485,-0.091,-0.057,0.061,0.1265,0.1505,-0.003,-0.0075,-0.055,0.045,-0.022,0.071
-0.1585,-0.1405,0.018,0.1495,-0.088,-0.0615,0.0605,0.1295,0.1525,-0.0025,-0.0065,-0.0555,0.044,-0.0195,0.072
-0.155,-0.137,0.018,0.146,-0.0865,-0.0595,0.0615,0.1285,0.153,0.0015,-0.0035,-0.0535,0.0475,-0.015,0.0715
-0.155,-0.1335,0.0215,0.144,-0.088,-0.056,0.059,0.127,0.1505,0.003,0.0,-0.0485,0.048,-0.009,0.0715
-0.1585,-0.1375,0.021,0.148,-0.0895,-0.0585,0.0595,0.1285,0.1515,0.004,0.003,-0.0465,0.0485,-0.011,0.072
-0.154,-0.1425,0.0115,0.148,-0.0825,-0.0655,0.062,0.1335,0.156,0.0075,0.0045,-0.0435,0.0515,-0.013,0.0755
-0.146,-0.1465,-0.0005,0.146,-0.0725,-0.0735,0.0615,0.138,0.1585,0.0085,0.007,-0.0415,0.052,-0.0175,0.078
-0.148,-0.145,0.003,0.1465,-0.0755,-0.071,0.063,0.1385,0.163,0.013,0.012,-0.037,0.0545,-0.0245,0.076
-0.1495,-0.1365,0.013,0.143,-0.081,-0.0615,0.063,0.1375,0.163,0.0175,0.0145,-0.033,0.0565,-0.0245,0.073
-0.15,-0.1295,0.0205,0.1395,-0.085,-0.0545,0.0635,0.137,0.1625,0.0185,0.016,-0.0325,0.0565,-0.021,0.0675
-0.148,-0.1275,0.0205,0.1375,-0.084,-0.0535,0.064,0.137,0.1645,0.02,0.0185,-0.029,0.057,-0.02,0.0665
-0.148,-0.1255,0.0225,0.1365,-0.085,-0.0515,0.065,0.1385,0.164,0.02,0.02,-0.0265,0.0575,-0.017,0.0695
-0.1515,-0.1255,0.0265,0.1385,-0.089,-0.0495,0.066,0.139,0.1655,0.0215,0.021,-0.0255,0.057,-0.0225,0.0715
-0.151,-0.1265,0.0245,0.1385,-0.0875,-0.051,0.06,0.1375,0.165,0.022,0.0215,-0.027,0.0565,-0.0225,0.0725
-0.15,-0.124,0.0265,0.137,-0.088,-0.0485,0.06,0.1385,0.167,0.023,0.025,-0.0245,0.0585,-0.016,0.0725
-0.146,-0.116,0.03,0.1305,-0.0875,-0.043,0.057,0.138,0.1665,0.0235,0.0275,-0.022,0.06,-0.009,0.07
-0.147,-0.1105,0.036,0.1285,-0.091,-0.0375,0.0505,0.1315,0.163,0.0215,0.025,-0.023,0.0605,-0.0005,0.0685
-0.1495,-0.1075,0.0415,0.128,-0.095,-0.033,0.05,0.1305,0.1625,0.0215,0.0245,-0.0235,0.0605,0.002,0.0685
-0.15,-0.1065,0.043,0.128,-0.096,-0.0315,0.047,0.128,0.162,0.021,0.0255,-0.024,0.0615,0.006,0.0695
-0.1475,-0.107,0.0405,0.127,-0.0935,-0.033,0.044,0.1265,0.1615,0.022,0.026,-0.023,0.062,0.016,0.0695
-0.143,-0.1035,0.0395,0.123,-0.091,-0.032,0.042,0.125,0.1575,0.02,0.023,-0.024,0.061,0.028,0.0695
-0.149,-0.103,0.046,0.126,-0.097,-0.0285,0.0415,0.125,0.159,0.02,0.0205,-0.023,0.0615,0.028,0.0695
-0.146,-0.099,0.047,0.122,-0.096,-0.026,0.0415,0.126,0.164,0.023,0.0255,-0.019,0.063,0.0315,0.0675
-0.1405,-0.0955,0.045,0.1175,-0.0925,-0.025,0.036,0.123,0.165,0.0235,0.0275,-0.018,0.0655,0.0355,0.0665
-0.143,-0.096,0.0475,0.119,-0.095,-0.024,0.0355,0.124,0.1655,0.025,0.028,-0.0185,0.065,0.032,0.07
-0.14,-0.1015,0.0385,0.1205,-0.089,-0.0315,0.04,0.1265,0.1675,0.0265,0.0285,-0.018,0.07,0.0295,0.075
-0.1365,-0.1065,0.03,0.1215,-0.083,-0.0385,0.0405,0.13,0.1725,0.03,0.0305,-0.016,0.072,0.024,0.077
-0.1305,-0.103,0.027,0.1165,-0.0785,-0.038,0.04,0.131,0.1765,0.0335,0.037,-0.0105,0.072,0.026,0.075
-0.1275,-0.0995,0.028,0.1135,-0.0775,-0.036,0.0395,0.1305,0.177,0.0375,0.0405,-0.0085,0.074,0.0225,0.073
-0.131,-0.094,0.0375,0.1125,-0.084,-0.0285,0.0405,0.1315,0.1785,0.0425,0.047,-0.0045,0.0745,0.0205,0.07
-0.1295,-0.0885,0.0405,0.1085,-0.085,-0.024,0.0395,0.131,0.1815,0.0465,0.052,-0.0005,0.076,0.0245,0.069
-0.129,-0.09,0.0385,0.109,-0.0835,-0.0255,0.035,0.128,0.1795,0.0455,0.051,0.0,0.0765,0.0225,0.0695
-0.134,-0.0905,0.0435,0.112,-0.0885,-0.0235,0.0305,0.124,0.179,0.0485,0.054,0.0005,0.077,0.0245,0.0685
-0.131,-0.084,0.047,0.1075,-0.0885,-0.0185,0.025,0.1195,0.1765,0.05,0.0555,0.0,0.0805,0.0305,0.0685
-0.1295,-0.0795,0.05,0.1045,-0.0895,-0.015,0.024,0.118,0.175,0.047,0.0575,0.0015,0.084,0.0355,0.069
-0.1325,-0.0745,0.058,0.1035,-0.095,-0.0085,0.0215,0.1135,0.1745,0.049,0.061,0.0025,0.086,0.0385,0.0655
-0.131,-0.07,0.0615,0.1005,-0.096,-0.0045,0.017,0.1075,0.173,0.051,0.0635,0.0065,0.088,0.045,0.0625
-0.1305,-0.0675,0.063,0.0985,-0.0965,-0.002,0.013,0.107,0.176,0.0515,0.0655,0.01,0.0895,0.0525,0.063
-0.1265,-0.064,0.0625,0.095,-0.094,-0.001,0.0075,0.1015,0.1735,0.052,0.0675,0.012,0.091,0.0575,0.063
-0.125,-0.065,0.0605,0.0945,-0.0925,-0.002,0.0015,0.0975,0.1705,0.0515,0.067,0.0115,0.0905,0.062,0.064
-0.118,-0.061,0.057,0.0895,-0.0875,-0.002,-0.004,0.0945,0.1705,0.0525,0.0685,0.0125,0.092,0.0745,0.0665
-0.1135,-0.0585,0.055,0.086,-0.084,-0.0015,-0.0065,0.0905,0.1685,0.052,0.0705,0.015,0.094,0.0755,0.0695
-0.1195,-0.0595,0.06,0.089,-0.0895,0.0005,-0.01,0.087,0.1675,0.051,0.0695,0.016,0.095,0.07,0.0715
-0.1215,-0.057,0.065,0.089,-0.093,0.004,-0.012,0.0855,0.1675,0.05,0.0685,0.017,0.0965,0.0745,0.0705
-0.117,-0.052,0.065,0.084,-0.0905,0.0065,-0.0135,0.084,0.1655,0.051,0.0695,0.019,0.095,0.077,0.0695
-0.1085,-0.054,0.055,0.081,-0.0815,0.0005,-0.013,0.082,0.166,0.0535,0.071,0.021,0.0945,0.0745,0.0705
-0.1075,-0.0615,0.046,0.0845,-0.0765,-0.008,-0.017,0.0795,0.1675,0.056,0.0715,0.0195,0.0965,0.0685,0.0725
-0.106,-0.064,0.0425,0.085,-0.074,-0.011,-0.0195,0.078,0.1685,0.059,0.0735,0.0185,0.0985,0.072,0.073
-0.1105,-0.0645,0.0465,0.0875,-0.078,-0.009,-0.0205,0.0765,0.1685,0.061,0.0755,0.019,0.098,0.0675,0.071
-0.1135,-0.063,0.051,0.088,-0.082,-0.006,-0.025,0.0725,0.1675,0.0625,0.0795,0.023,0.0985,0.0555,0.069
-0.106,-0.0575,0.049,0.0815,-0.0775,-0.004,-0.028,0.069,0.167,0.0645,0.084,0.026,0.1,0.059,0.0685
-0.1035,-0.0575,0.046,0.0805,-0.0745,-0.006,-0.0305,0.0675,0.17,0.067,0.0845,0.0275,0.1,0.054,0.0685
-0.1035,-0.059,0.0445,0.081,-0.074,-0.007,-0.035,0.0645,0.169,0.067,0.0865,0.0295,0.102,0.0505,0.0695
-0.103,-0.0545,0.0485,0.0785,-0.075,-0.003,-0.0405,0.0575,0.163,0.0655,0.0855,0.0265,0.1035,0.0565,0.071
-0.1025,-0.057,0.045,0.0795,-0.0735,-0.006,-0.0425,0.0545,0.162,0.0665,0.086,0.028,0.1045,0.058,0.072
-0.101,-0.0515,0.049,0.076,-0.0745,-0.0015,-0.0495,0.049,0.1575,0.0635,0.0875,0.0295,0.106,0.0645,0.069
-0.098,-0.0445,0.053,0.071,-0.0755,0.0045,-0.055,0.042,0.152,0.061,0.0895,0.031,0.1115,0.0715,0.068
-0.101,-0.044,0.0565,0.072,-0.0785,0.006,-0.0585,0.036,0.1485,0.059,0.0915,0.032,0.1125,0.0665,0.069
-0.108,-0.047,0.061,0.0775,-0.0845,0.007,-0.0615,0.0335,0.149,0.0585,0.091,0.0325,0.111,0.06,0.0685
-0.1125,-0.05,0.063,0.081,-0.0875,0.0065,-0.0635,0.03,0.148,0.0605,0.093,0.035,0.114,0.07,0.072
-0.115,-0.047,0.068,0.081,-0.091,0.0105,-0.068,0.0265,0.1415,0.0565,0.089,0.032,0.114,0.074,0.0735
-0.113,-0.0505,0.0625,0.0815,-0.0875,0.0055,-0.07,0.026,0.141,0.0565,0.0895,0.0335,0.116,0.0735,0.073
-0.106,-0.0485,0.0575,0.077,-0.0815,0.0045,-0.0765,0.0165,0.1385,0.0555,0.0915,0.0345,0.1215,0.0785,0.0735
-0.101,-0.0435,0.057,0.072,-0.0785,0.0065,-0.08,0.013,0.1355,0.0545,0.091,0.036,0.1245,0.081,0.077
-0.102,-0.0455,0.056,0.0735,-0.0785,0.005,-0.0775,0.0135,0.137,0.058,0.092,0.038,0.1225,0.082,0.0805
-0.1025,-0.053,0.0495,0.0775,-0.0755,-0.002,-0.0775,0.0125,0.138,0.056,0.093,0.037,0.1225,0.077,0.083
-0.0995,-0.0585,0.041,0.0785,-0.07,-0.0085,-0.0805,0.011,0.1345,0.0545,0.0915,0.034,0.122,0.075,0.0835
-0.0955,-0.058,0.0375,0.0765,-0.066,-0.0105,-0.082,0.008,0.1315,0.0535,0.09,0.0315,0.119,0.071,0.082
-0.1005,-0.058,0.043,0.079,-0.0715,-0.0075,-0.0815,0.008,0.134,0.0555,0.091,0.0325,0.117,0.0615,0.0795
-0.106,-0.0605,0.0455,0.083,-0.0755,-0.0075,-0.082,0.0045,0.132,0.055,0.09,0.032,0.1155,0.056,0.081
-0.104,-0.06,0.044,0.082,-0.074,-0.008,-0.083,0.002,0.13,0.0545,0.091,0.0335,0.114,0.0535,0.0805
-0.1035,-0.059,0.045,0.081,-0.074,-0.007,-0.0835,0.0015,0.131,0.0565,0.0925,0.034,0.1125,0.051,0.08
-0.105,-0.065,0.04,0.085,-0.072,-0.0125,-0.084,-0.002,0.129,0.0555,0.089,0.033,0.111,0.043,0.082
-0.1005,-0.063,0.0375,0.0815,-0.069,-0.0125,-0.087,-0.006,0.127,0.0535,0.089,0.033,0.1115,0.0435,0.083
-0.098,-0.062,0.0365,0.0795,-0.067,-0.0125,-0.0895,-0.007,0.127,0.0505,0.0885,0.031,0.112,0.044,0.085
-0.0995,-0.0585,0.041,0.0785,-0.07,-0.0085,-0.0925,-0.0115,0.1245,0.051,0.0895,0.0315,0.111,0.046,0.0845
-0.0985,-0.0545,0.044,0.076,-0.071,-0.0055,-0.0975,-0.017,0.12,0.0495,0.09,0.032,0.109,0.0515,0.084
-0.101,-0.0595,0.041,0.08,-0.071,-0.009,-0.1015,-0.023,0.115,0.0445,0.086,0.0295,0.1085,0.048,0.087
-0.102,-0.063,0.039,0.082,-0.0705,-0.0115,-0.1045,-0.025,0.112,0.0425,0.0855,0.029,0.108,0.051,0.087
-0.102,-0.067,0.035,0.0845,-0.068,-0.016,-0.1065,-0.0285,0.109,0.0385,0.083,0.026,0.105,0.053,0.089
-0.1025,-0.0685,0.0335,0.085,-0.0675,-0.017,-0.108,-0.0345,0.1045,0.033,0.0795,0.025,0.1065,0.055,0.092
-0.103,-0.0705,0.032,0.0865,-0.067,-0.0195,-0.109,-0.035,0.103,0.032,0.079,0.0255,0.108,0.055,0.0925
-0.101,-0.072,0.029,0.086,-0.0645,-0.0215,-0.111,-0.0375,0.1005,0.032,0.079,0.026,0.1105,0.055,0.093
-0.101,-0.0705,0.03,0.0855,-0.065,-0.02,-0.114,-0.0405,0.097,0.031,0.08,0.026,0.112,0.055,0.0935
-0.1035,-0.071,0.0325,0.087,-0.068,-0.019,-0.114,-0.042,0.0955,0.03,0.078,0.024,0.109,0.051,0.0935
-0.1025,-0.0785,0.0235,0.09,-0.063,-0.0275,-0.11,-0.041,0.0975,0.03,0.076,0.0235,0.109,0.0505,0.0955
-0.104,-0.088,0.016,0.096,-0.0595,-0.036,-0.107,-0.04,0.0965,0.0285,0.075,0.021,0.108,0.04,0.0985
-0.1065,-0.088,0.0185,0.097,-0.062,-0.0345,-0.107,-0.0405,0.0955,0.0285,0.074,0.0205,0.1065,0.0305,0.0985
-0.1005,-0.08,0.0205,0.09,-0.0605,-0.0295,-0.106,-0.039,0.098,0.0315,0.0775,0.024,0.107,0.025,0.098
-0.0965,-0.078,0.0185,0.087,-0.057,-0.03,-0.1035,-0.0385,0.097,0.0305,0.0785,0.028,0.1095,0.0195,0.0975
-0.1015,-0.0835,0.0175,0.092,-0.059,-0.033,-0.106,-0.0425,0.0955,0.029,0.079,0.0285,0.1085,0.017,0.0955
-0.108,-0.0875,0.0205,0.0975,-0.064,-0.0335,-0.1065,-0.046,0.093,0.029,0.0795,0.0275,0.106,0.012,0.094
-0.116,-0.097,0.019,0.106,-0.067,-0.039,-0.1075,-0.0475,0.089,0.0255,0.0755,0.0245,0.1035,0.0045,0.095
-0.114,-0.095,0.0195,0.104,-0.0665,-0.0375,-0.11,-0.05,0.087,0.026,0.074,0.0225,0.1,0.006,0.0925
-0.1115,-0.0915,0.02,0.1015,-0.066,-0.0355,-0.108,-0.0515,0.0855,0.0245,0.073,0.0215,0.1,0.0055,0.0915
-0.1155,-0.0875,0.028,0.1015,-0.0715,-0.03,-0.1105,-0.055,0.0815,0.021,0.0725,0.0195,0.0985,0.0125,0.093
-0.1145,-0.083,0.0315,0.0985,-0.0725,-0.026,-0.1155,-0.0615,0.076,0.019,0.0725,0.02,0.097,0.0225,0.0905
-0.1155,-0.086,0.0295,0.1005,-0.0725,-0.0285,-0.12,-0.066,0.072,0.0155,0.071,0.0185,0.0985,0.0205,0.092
-0.1185,-0.085,0.0335,0.1015,-0.0755,-0.026,-0.122,-0.0695,0.0685,0.0125,0.0695,0.018,0.0995,0.023,0.0935
-0.119,-0.0865,0.0325,0.1025,-0.0755,-0.027,-0.1215,-0.0705,0.0665,0.0115,0.0675,0.016,0.096,0.029,0.0925
-0.1215,-0.0895,0.0325,0.105,-0.0765,-0.0285,-0.1195,-0.072,0.0645,0.0085,0.0635,0.0115,0.0925,0.031,0.0935
-0.121,-0.092,0.029,0.106,-0.075,-0.0315,-0.12,-0.071,0.0635,0.007,0.061,0.0095,0.092,0.034,0.0945
-0.12,-0.0935,0.027,0.1065,-0.0735,-0.033,-0.119,-0.0705,0.0645,0.007,0.061,0.0085,0.091,0.0345,0.095
-0.124,-0.096,0.028,0.1095,-0.0755,-0.034,-0.1175,-0.0715,0.064,0.005,0.06,0.007,0.089,0.031,0.097
-0.127,-0.098,0.029,0.112,-0.0775,-0.0345,-0.12,-0.0745,0.061,-0.0005,0.0555,0.003,0.086,0.029,0.0975
-0.127,-0.104,0.023,0.115,-0.0745,-0.0405,-0.116,-0.0715,0.061,-0.0035,0.0515,0.0,0.0825,0.0265,0.1015
-0.1255,-0.11,0.015,0.1175,-0.07,-0.0475,-0.112,-0.0665,0.065,-0.0045,0.0505,0.0,0.0815,0.021,0.1045
-0.125,-0.1115,0.013,0.118,-0.069,-0.0495,-0.111,-0.068,0.064,-0.006,0.049,0.0015,0.0825,0.011,0.105
-0.126,-0.1135,0.012,0.1195,-0.069,-0.051,-0.1115,-0.067,0.0635,-0.0055,0.0495,0.002,0.084,0.006,0.1035
-0.126,-0.112,0.014,0.1185,-0.07,-0.049,-0.112,-0.067,0.0645,-0.0025,0.0495,0.001,0.085,0.0045,0.103
-0.1245,-0.1095,0.015,0.117,-0.0695,-0.0475,-0.1085,-0.066,0.066,0.0005,0.052,0.0055,0.0865,0.0,0.1025
-0.122,-0.1085,0.0135,0.115,-0.0675,-0.0475,-0.11,-0.066,0.0665,0.002,0.0545,0.008,0.088,0.002,0.1015
-0.122,-0.113,0.009,0.1175,-0.065,-0.052,-0.1085,-0.0675,0.064,-0.0015,0.051,0.006,0.0855,-0.004,0.105
-0.123,-0.1175,0.006,0.12,-0.064,-0.0555,-0.106,-0.0665,0.0635,-0.001,0.052,0.008,0.085,-0.008,0.104
-0.122,-0.116,0.006,0.119,-0.0635,-0.055,-0.111,-0.0695,0.0615,-0.001,0.0505,0.007,0.087,-0.007,0.104
-0.1235,-0.112,0.0115,0.1175,-0.0675,-0.0505,-0.114,-0.071,0.058,-0.003,0.048,0.006,0.0875,-0.005,0.106
-0.125,-0.1085,0.016,0.1165,-0.0705,-0.0465,-0.1135,-0.07,0.055,-0.0035,0.0515,0.008,0.087,0.002,0.1035
-0.125,-0.108,0.0165,0.116,-0.0705,-0.0455,-0.1165,-0.0765,0.051,-0.0075,0.048,0.0065,0.0855,0.003,0.1025
-0.127,-0.107,0.02,0.1165,-0.0735,-0.0435,-0.116,-0.0795,0.051,-0.0075,0.048,0.0055,0.084,0.002,0.1015
-0.1305,-0.109,0.0215,0.1195,-0.0755,-0.044,-0.1155,-0.0775,0.05,-0.0085,0.048,0.005,0.083,0.0045,0.1005
-0.1355,-0.113,0.0225,0.124,-0.0785,-0.045,-0.1175,-0.0785,0.048,-0.0105,0.0455,0.0035,0.0845,0.008,0.102
-0.134,-0.112,0.022,0.123,-0.078,-0.045,-0.1155,-0.0775,0.048,-0.01,0.0475,0.004,0.087,0.015,0.1005
-0.132,-0.108,0.0245,0.12,-0.078,-0.0415,-0.115,-0.0795,0.0455,-0.011,0.048,0.003,0.0875,0.021,0.096
-0.1325,-0.1055,0.0275,0.1185,-0.08,-0.039,-0.115,-0.08,0.0455,-0.0115,0.0505,0.0035,0.09,0.016,0.096
-0.127,-0.105,0.022,0.1155,-0.074,-0.0415,-0.1165,-0.077,0.0465,-0.011,0.051,0.004,0.0905,0.0105,0.098
-0.126,-0.1125,0.0135,0.119,-0.0695,-0.0495,-0.113,-0.0745,0.0485,-0.011,0.05,0.004,0.092,0.0045,0.1035
-0.1245,-0.1175,0.007,0.121,-0.0655,-0.0555,-0.1095,-0.0745,0.05,-0.0105,0.05,0.0035,0.093,0.0005,0.109
-0.1255,-0.117,0.0085,0.121,-0.067,-0.054,-0.109,-0.0725,0.0535,-0.007,0.0535,0.0035,0.0925,-0.0025,0.107
-0.1325,-0.118,0.0145,0.125,-0.0735,-0.0515,-0.1075,-0.0705,0.055,-0.0065,0.0535,0.0045,0.0935,-0.0115,0.1045
-0.132,-0.116,0.0155,0.124,-0.0735,-0.05,-0.109,-0.0735,0.051,-0.0105,0.0505,0.002,0.0915,-0.0105,0.104
-0.1325,-0.116,0.0165,0.124,-0.074,-0.05,-0.107,-0.073,0.0535,-0.008,0.0515,0.005,0.091,-0.011,0.102
-0.132,-0.116,0.016,0.124,-0.074,-0.05,-0.108,-0.0725,0.055,-0.0055,0.0525,0.004,0.0895,-0.014,0.1
-0.1335,-0.117,0.0165,0.125,-0.075,-0.05,-0.1095,-0.0735,0.053,-0.008,0.053,0.001,0.086,-0.015,0.1005
-0.1355,-0.12,0.016,0.1275,-0.0755,-0.052,-0.1085,-0.074,0.051,-0.009,0.0495,0.001,0.0835,-0.0185,0.1015
-0.138,-0.12,0.018,0.1285,-0.0775,-0.051,-0.1095,-0.075,0.0475,-0.012,0.048,-0.001,0.083,-0.0155,0.1005
-0.142,-0.1155,0.027,0.1285,-0.084,-0.0445,-0.112,-0.0775,0.0465,-0.013,0.049,-0.001,0.082,-0.011,0.099
-0.1395,-0.113,0.026,0.126,-0.0825,-0.0435,-0.116,-0.0795,0.046,-0.013,0.049,-0.0015,0.0825,-0.004,0.0995
-0.1385,-0.112,0.0265,0.125,-0.082,-0.043,-0.116,-0.082,0.045,-0.0145,0.0485,-0.0005,0.082,0.001,0.1
-0.139,-0.1135,0.0255,0.126,-0.082,-0.044,-0.115,-0.0825,0.0455,-0.0145,0.0475,0.0,0.081,0.0005,0.1
-0.138,-0.117,0.021,0.127,-0.079,-0.048,-0.116,-0.082,0.046,-0.0145,0.0465,-0.0015,0.0795,0.004,0.101
-0.1365,-0.12,0.017,0.128,-0.0765,-0.0515,-0.117,-0.084,0.0435,-0.0135,0.0435,-0.002,0.08,0.0065,0.101
-0.136,-0.124,0.0125,0.1295,-0.074,-0.0555,-0.1155,-0.081,0.0445,-0.013,0.0445,-0.003,0.0785,0.0125,0.101
-0.136,-0.123,0.013,0.129,-0.0745,-0.055,-0.115,-0.0805,0.048,-0.0125,0.047,-0.0025,0.079,0.0125,0.0995
-0.1365,-0.125,0.011,0.1305,-0.0735,-0.057,-0.112,-0.0795,0.049,-0.0105,0.0475,-0.0015,0.0805,0.011,0.098
-0.1395,-0.1285,0.011,0.1335,-0.075,-0.0585,-0.109,-0.0785,0.05,-0.01,0.0485,0.001,0.08,0.008,0.098
-0.1355,-0.1325,0.0035,0.1335,-0.0695,-0.0645,-0.1075,-0.0755,0.0515,-0.009,0.046,0.0015,0.081,0.0015,0.1005
-0.131,-0.137,-0.006,0.1335,-0.0625,-0.0715,-0.105,-0.071,0.052,-0.007,0.045,0.0015,0.082,-0.0025,0.1025
-0.132,-0.1365,-0.004,0.1335,-0.0635,-0.07,-0.105,-0.0735,0.052,-0.005,0.048,0.004,0.0855,-0.008,0.1045
-0.1325,-0.135,-0.002,0.1335,-0.065,-0.0685,-0.103,-0.071,0.0535,-0.003,0.0505,0.006,0.0855,-0.009,0.1025
-0.1315,-0.1335,-0.002,0.1325,-0.0645,-0.068,-0.101,-0.0685,0.056,-0.004,0.0515,0.008,0.0865,-0.012,0.1005
-0.132,-0.1345,-0.0025,0.133,-0.0645,-0.0685,-0.099,-0.068,0.0545,-0.003,0.0525,0.0105,0.087,-0.02,0.1015
-0.133,-0.1315,0.0015,0.132,-0.067,-0.065,-0.0985,-0.0685,0.055,-0.0025,0.055,0.013,0.0875,-0.022,0.099
-0.1325,-0.129,0.0035,0.1305,-0.068,-0.063,-0.098,-0.068,0.0575,0.0,0.057,0.0135,0.089,-0.018,0.0985
-0.1325,-0.1325,-0.0005,0.1325,-0.0655,-0.0665,-0.0975,-0.068,0.056,-0.001,0.054,0.009,0.086,-0.019,0.097
-0.136,-0.134,0.0025,0.1345,-0.069,-0.0655,-0.0995,-0.0705,0.055,-0.005,0.052,0.0055,0.0845,-0.0205,0.0945
-0.1385,-0.125,0.0135,0.1315,-0.076,-0.0555,-0.1015,-0.0725,0.0535,-0.0035,0.0535,0.0065,0.086,-0.0115,0.0915
-0.1365,-0.12,0.0165,0.128,-0.076,-0.052,-0.106,-0.076,0.0515,-0.006,0.052,0.0075,0.089,-0.007,0.0895
-0.139,-0.122,0.0165,0.1305,-0.0775,-0.0525,-0.1065,-0.0775,0.0485,-0.0085,0.0515,0.007,0.0865,-0.0045,0.0905
-0.1385,-0.1215,0.017,0.13,-0.0775,-0.0525,-0.107,-0.078,0.046,-0.0095,0.05,0.0055,0.0845,0.0015,0.091
-0.1425,-0.126,0.0165,0.134,-0.0795,-0.0545,-0.1105,-0.0815,0.0435,-0.015,0.046,0.0005,0.0855,0.0035,0.0925
-0.1465,-0.127,0.02,0.1365,-0.083,-0.0535,-0.1135,-0.0835,0.0415,-0.018,0.042,-0.0025,0.085,0.009,0.0945
-0.1455,-0.129,0.017,0.137,-0.081,-0.056,-0.113,-0.083,0.043,-0.017,0.042,-0.001,0.085,0.011,0.0965
-0.146,-0.1295,0.017,0.1375,-0.081,-0.0565,-0.1125,-0.085,0.0405,-0.0175,0.041,-0.002,0.086,0.0125,0.0975
-0.1465,-0.1265,0.02,0.1365,-0.083,-0.0535,-0.113,-0.084,0.039,-0.017,0.0435,-0.001,0.0895,0.015,0.0965
-0.15,-0.1275,0.0225,0.1385,-0.086,-0.0525,-0.1125,-0.0835,0.0405,-0.0155,0.044,0.0015,0.0885,0.0135,0.095
-0.1485,-0.133,0.0155,0.1405,-0.082,-0.059,-0.11,-0.082,0.0415,-0.016,0.0435,0.001,0.0885,0.0085,0.096
-0.146,-0.14,0.0055,0.143,-0.0755,-0.0675,-0.105,-0.079,0.044,-0.017,0.0445,-0.0005,0.089,0.002,0.099
-0.143,-0.136,0.007,0.139,-0.075,-0.0645,-0.105,-0.079,0.0435,-0.016,0.0445,0.001,0.088,0.0,0.1
-0.1415,-0.133,0.0085,0.137,-0.075,-0.0625,-0.105,-0.0755,0.045,-0.013,0.0495,0.005,0.089,-0.0045,0.1
-0.146,-0.135,0.011,0.14,-0.0785,-0.062,-0.1045,-0.0755,0.047,-0.012,0.053,0.0055,0.0895,-0.0085,0.099
-0.1505,-0.137,0.0135,0.1435,-0.0815,-0.0615,-0.1055,-0.0775,0.046,-0.014,0.0505,0.005,0.09,-0.012,0.096
-0.152,-0.1375,0.015,0.1445,-0.083,-0.061,-0.102,-0.077,0.0475,-0.0135,0.051,0.0045,0.0885,-0.013,0.0955
-0.154,-0.1375,0.0165,0.1455,-0.085,-0.0605,-0.101,-0.076,0.047,-0.012,0.051,0.004,0.0865,-0.014,0.097
-0.1515,-0.1395,0.012,0.145,-0.0815,-0.0635,-0.1015,-0.0745,0.0465,-0.012,0.0495,0.004,0.087,-0.0165,0.0965
-0.1475,-0.137,0.0105,0.142,-0.079,-0.063,-0.1015,-0.075,0.05,-0.01,0.053,0.0045,0.0885,-0.0175,0.094
-0.147,-0.133,0.0135,0.14,-0.08,-0.06,-0.105,-0.077,0.046,-0.009,0.0525,0.0055,0.0885,-0.012,0.09
-0.146,-0.129,0.017,0.1375,-0.081,-0.056,-0.1065,-0.08,0.0445,-0.011,0.051,0.0015,0.0875,-0.003,0.088
-0.147,-0.126,0.0215,0.1365,-0.084,-0.052,-0.107,-0.0795,0.0445,-0.0115,0.049,0.0015,0.0865,0.001,0.0915
-0.1455,-0.1235,0.0215,0.134,-0.083,-0.051,-0.1075,-0.0805,0.0425,-0.0125,0.046,0.0025,0.0865,0.006,0.0935
-0.1435,-0.124,0.0195,0.1335,-0.081,-0.052,-0.1085,-0.081,0.0425,-0.017,0.0455,-0.001,0.085,0.0085,0.0935
-0.145,-0.1265,0.0185,0.1355,-0.0815,-0.054,-0.1105,-0.082,0.0395,-0.0205,0.0415,-0.0035,0.0805,0.0075,0.094
-0.147,-0.1285,0.0185,0.1375,-0.0825,-0.055,-0.1085,-0.0835,0.04,-0.022,0.0395,-0.005,0.077,0.011,0.0945
-0.1445,-0.129,0.016,0.1365,-0.08,-0.0565,-0.1085,-0.081,0.041,-0.0205,0.0405,-0.0035,0.0785,0.017,0.093
-0.1445,-0.1265,0.0185,0.135,-0.0815,-0.054,-0.1075,-0.0795,0.0435,-0.0195,0.04,-0.003,0.0785,0.02,0.0915
-0.1525,-0.127,0.0255,0.1395,-0.089,-0.0505,-0.104,-0.0775,0.048,-0.016,0.0435,-0.002,0.076,0.015,0.0905
-0.1565,-0.1365,0.02,0.1465,-0.088,-0.0585,-0.1,-0.0735,0.0525,-0.0135,0.044,-0.0015,0.078,0.0075,0.0925
-0.1595,-0.145,0.014,0.152,-0.0865,-0.0655,-0.0975,-0.0705,0.0555,-0.0135,0.044,-0.002,0.077,0.0,0.0945
-0.159,-0.145,0.014,0.1515,-0.086,-0.0655,-0.097,-0.07,0.0565,-0.0085,0.047,0.0015,0.079,-0.001,0.094
-0.1535,-0.141,0.0125,0.147,-0.083,-0.0645,-0.0955,-0.068,0.058,-0.011,0.048,0.0025,0.083,-0.0005,0.0945
-0.151,-0.1415,0.009,0.146,-0.08,-0.0665,-0.096,-0.0675,0.0585,-0.011,0.0495,0.0035,0.084,-0.004,0.092
-0.153,-0.1415,0.0115,0.147,-0.082,-0.065,-0.094,-0.067,0.0605,-0.006,0.0515,0.005,0.085,-0.009,0.091
-0.1525,-0.1385,0.014,0.1455,-0.083,-0.0625,-0.0955,-0.0655,0.0625,-0.005,0.0525,0.009,0.0865,-0.0095,0.0915
-0.1515,-0.137,0.015,0.144,-0.083,-0.061,-0.098,-0.067,0.062,-0.003,0.0525,0.009,0.086,-0.008,0.0895
-0.1505,-0.1365,0.014,0.143,-0.082,-0.0615,-0.0965,-0.065,0.062,-0.0035,0.052,0.0055,0.085,-0.008,0.0905
-0.147,-0.1365,0.0105,0.1415,-0.0785,-0.063,-0.0955,-0.065,0.064,-0.0025,0.0535,0.007,0.086,-0.007,0.091
-0.1475,-0.1275,0.02,0.137,-0.0835,-0.054,-0.0985,-0.0685,0.062,-0.003,0.054,0.0075,0.085,0.001,0.088
-0.147,-0.124,0.0235,0.135,-0.085,-0.05,-0.1005,-0.07,0.0595,-0.005,0.0525,0.0055,0.0845,0.0055,0.086
-0.148,-0.124,0.0245,0.1355,-0.086,-0.05,-0.0995,-0.0695,0.0595,-0.006,0.05,0.004,0.083,0.0045,0.086
-0.151,-0.1245,0.0265,0.1375,-0.0885,-0.049,-0.1005,-0.0695,0.057,-0.0065,0.0495,0.004,0.0805,0.009,0.086
-0.1525,-0.129,0.024,0.1405,-0.088,-0.0525,-0.1005,-0.07,0.0575,-0.008,0.0465,0.003,0.079,0.0135,0.087
-0.1485,-0.1275,0.021,0.138,-0.0845,-0.053,-0.101,-0.0695,0.0575,-0.0095,0.0445,0.0035,0.0795,0.023,0.088
-0.1465,-0.1295,0.0175,0.138,-0.0815,-0.056,-0.1005,-0.071,0.056,-0.009,0.046,0.0055,0.0825,0.0215,0.088
-0.1465,-0.131,0.0155,0.1385,-0.081,-0.0575,-0.1015,-0.0695,0.0585,-0.0085,0.0465,0.0055,0.0835,0.018,0.0855
-0.1475,-0.13,0.0175,0.1385,-0.082,-0.056,-0.1,-0.0675,0.0605,-0.0055,0.05,0.0065,0.0835,0.0225,0.084
-0.1455,-0.127,0.0185,0.136,-0.0815,-0.054,-0.0995,-0.0675,0.0595,-0.0035,0.0505,0.0075,0.0845,0.0275,0.0845
-0.1425,-0.132,0.01,0.137,-0.076,-0.061,-0.0975,-0.065,0.0615,-0.0035,0.0515,0.0065,0.0835,0.0215,0.0845
-0.143,-0.142,0.0005,0.142,-0.0715,-0.0705,-0.0925,-0.062,0.066,-0.0005,0.0545,0.008,0.085,0.005,0.0865
-0.144,-0.142,0.002,0.1425,-0.073,-0.07,-0.092,-0.0595,0.0645,0.0,0.0515,0.008,0.085,0.0005,0.085
-0.1515,-0.1405,0.011,0.1455,-0.081,-0.0645,-0.092,-0.0605,0.0635,0.0,0.0505,0.006,0.084,-0.003,0.084
-0.15,-0.141,0.009,0.1455,-0.079,-0.066,-0.091,-0.059,0.0675,0.0045,0.055,0.0095,0.086,-0.0015,0.0835
-0.146,-0.14,0.0055,0.143,-0.0755,-0.067,-0.091,-0.0575,0.068,0.0045,0.0575,0.0105,0.086,-0.0015,0.0825
-0.1495,-0.141,0.008,0.145,-0.0785,-0.0665,-0.0915,-0.0595,0.067,0.004,0.056,0.009,0.085,-0.006,0.0815
-0.1525,-0.14,0.012,0.146,-0.082,-0.064,-0.0915,-0.0595,0.0675,0.0045,0.0575,0.0105,0.085,-0.008,0.0825
-0.1525,-0.1375,0.015,0.145,-0.0835,-0.0615,-0.0935,-0.06,0.0655,0.001,0.0555,0.0075,0.085,-0.011,0.084
-0.1505,-0.137,0.0135,0.1435,-0.0815,-0.062,-0.0945,-0.0585,0.0665,0.0015,0.0525,0.006,0.0855,-0.006,0.0845
-0.1515,-0.13,0.0215,0.1405,-0.086,-0.0545,-0.0965,-0.0605,0.0665,0.002,0.053,0.007,0.0875,0.002,0.084
-0.1465,-0.1215,0.025,0.1335,-0.0855,-0.0485,-0.1005,-0.0615,0.0645,0.002,0.0545,0.0065,0.089,0.01,0.0815
-0.1385,-0.115,0.0235,0.1265,-0.0805,-0.046,-0.0995,-0.062,0.0675,0.0045,0.057,0.0075,0.0885,0.012,0.0815
-0.144,-0.118,0.0255,0.1305,-0.0845,-0.046,-0.1005,-0.0645,0.0665,0.003,0.0555,0.007,0.09,0.017,0.0825
-0.153,-0.126,0.027,0.139,-0.0895,-0.0495,-0.1035,-0.066,0.063,0.0015,0.054,0.006,0.091,0.02,0.0835
-0.1535,-0.1265,0.027,0.14,-0.09,-0.0495,-0.104,-0.0655,0.0625,0.001,0.0505,0.0035,0.0905,0.0275,0.0845
-0.1515,-0.1275,0.024,0.139,-0.0875,-0.0515,-0.1045,-0.064,0.063,0.001,0.0495,0.0015,0.09,0.035,0.085
-0.1495,-0.1255,0.024,0.1375,-0.0865,-0.051,-0.1055,-0.0655,0.0645,-0.0005,0.049,0.0,0.091,0.0325,0.0855
-0.15,-0.1245,0.0255,0.137,-0.087,-0.0495,-0.1045,-0.0655,0.064,-0.0015,0.047,0.0005,0.093,0.033,0.085
-0.153,-0.1275,0.0255,0.14,-0.089,-0.051,-0.1015,-0.0635,0.065,-0.0015,0.0495,0.001,0.091,0.026,0.0825
-0.151,-0.1335,0.018,0.142,-0.0845,-0.0575,-0.0995,-0.06,0.0695,0.0005,0.05,0.001,0.0885,0.02,0.085
-0.1495,-0.1365,0.013,0.143,-0.081,-0.0615,-0.095,-0.0535,0.0735,0.0045,0.0495,0.0005,0.086,0.0165,0.088
-0.1495,-0.136,0.0135,0.1425,-0.081,-0.061,-0.0935,-0.054,0.0745,0.0055,0.05,-0.001,0.085,0.008,0.086
-0.143,-0.135,0.008,0.1385,-0.075,-0.0635,-0.0935,-0.0545,0.0755,0.008,0.053,0.003,0.088,0.0025,0.0855
-0.1435,-0.134,0.0095,0.1385,-0.0765,-0.062,-0.0905,-0.05,0.0795,0.0105,0.055,0.006,0.0865,-0.0025,0.0825
-0.147,-0.1315,0.016,0.139,-0.0815,-0.058,-0.0905,-0.048,0.0795,0.013,0.057,0.0065,0.086,-0.005,0.082
-0.145,-0.127,0.018,0.1355,-0.081,-0.0545,-0.092,-0.0465,0.0805,0.0145,0.0595,0.0095,0.0875,-0.003,0.0825
-0.1475,-0.1285,0.0195,0.138,-0.0835,-0.0545,-0.0935,-0.05,0.079,0.0115,0.0565,0.006,0.085,0.0,0.0825
-0.154,-0.1335,0.0205,0.1435,-0.087,-0.0565,-0.0945,-0.0525,0.0755,0.0075,0.0525,0.002,0.0835,-0.003,0.0805
-0.1515,-0.134,0.0175,0.1425,-0.0845,-0.0585,-0.093,-0.05,0.0755,0.0075,0.054,0.003,0.083,-0.0085,0.08
-0.149,-0.126,0.0235,0.137,-0.086,-0.0515,-0.0945,-0.054,0.077,0.0125,0.06,0.006,0.085,-0.002,0.0775
-0.1505,-0.1195,0.0305,0.1345,-0.09,-0.0445,-0.099,-0.058,0.0765,0.0105,0.0565,0.006,0.086,0.0065,0.077
-0.1475,-0.1185,0.029,0.133,-0.088,-0.0445,-0.1015,-0.059,0.073,0.0075,0.0515,0.0045,0.085,0.0095,0.0795
-0.148,-0.119,0.029,0.133,-0.088,-0.045,-0.1015,-0.059,0.0725,0.0095,0.0525,0.004,0.0855,0.011,0.078
-0.1475,-0.121,0.0265,0.134,-0.0865,-0.047,-0.1035,-0.0605,0.072,0.006,0.0525,0.002,0.084,0.0185,0.08
-0.1475,-0.1235,0.0245,0.1355,-0.086,-0.0495,-0.104,-0.063,0.0695,0.004,0.051,0.001,0.085,0.0225,0.0805
-0.153,-0.1285,0.0245,0.1405,-0.0885,-0.052,-0.1015,-0.0605,0.0695,0.0055,0.0495,0.0,0.0835,0.0195,0.081
-0.1525,-0.1285,0.0245,0.1405,-0.0885,-0.052,-0.102,-0.0585,0.072,0.006,0.051,0.001,0.084,0.0225,0.08
-0.151,-0.127,0.0245,0.139,-0.0875,-0.051,-0.1035,-0.0605,0.0715,0.006,0.052,0.0,0.0845,0.024,0.08
-0.153,-0.127,0.0265,0.1395,-0.0895,-0.05,-0.1025,-0.06,0.07,0.0055,0.051,0.0,0.0835,0.024,0.0815
-0.1515,-0.133,0.019,0.142,-0.0855,-0.057,-0.098,-0.055,0.074,0.006,0.0505,0.0005,0.0845,0.017,0.083
-0.146,-0.139,0.007,0.1425,-0.0765,-0.066,-0.0965,-0.054,0.0765,0.007,0.05,-0.0015,0.0845,0.012,0.087
-0.146,-0.1405,0.0055,0.143,-0.0755,-0.0675,-0.0945,-0.0525,0.078,0.0065,0.051,0.001,0.085,0.005,0.086
-0.147,-0.1405,0.006,0.1435,-0.076,-0.0675,-0.0945,-0.051,0.0765,0.008,0.053,0.003,0.087,0.001,0.0845
-0.1465,-0.137,0.0095,0.1415,-0.078,-0.0635,-0.096,-0.0505,0.075,0.0095,0.0545,0.0035,0.087,0.003,0.084
-0.144,-0.1335,0.01,0.1385,-0.0765,-0.062,-0.0955,-0.0505,0.075,0.0095,0.054,0.004,0.087,-0.0005,0.0815
-0.1425,-0.1345,0.008,0.138,-0.075,-0.063,-0.093,-0.0485,0.0785,0.0145,0.0575,0.007,0.0885,-0.0035,0.0805
-0.1485,-0.1375,0.0115,0.1425,-0.0795,-0.063,-0.093,-0.049,0.0795,0.016,0.0595,0.007,0.0875,-0.007,0.0815
-0.1465,-0.1345,0.0125,0.14,-0.079,-0.061,-0.0945,-0.0525,0.076,0.012,0.0565,0.006,0.088,-0.003,0.083
-0.147,-0.1335,0.014,0.14,-0.08,-0.06,-0.0935,-0.05,0.076,0.012,0.0545,0.005,0.089,-0.0025,0.085
-0.152,-0.1305,0.022,0.141,-0.0865,-0.054,-0.097,-0.053,0.073,0.01,0.054,0.0035,0.087,-0.0005,0.083
-0.154,-0.1255,0.029,0.1395,-0.091,-0.048,-0.101,-0.058,0.07,0.0095,0.056,0.0055,0.0885,0.0065,0.08
-0.1565,-0.123,0.0335,0.139,-0.095,-0.0445,-0.101,-0.0595,0.0695,0.0095,0.0565,0.0065,0.089,0.0115,0.079
-0.1605,-0.1245,0.0355,0.142,-0.098,-0.0445,-0.101,-0.0595,0.07,0.0085,0.056,0.007,0.0885,0.016,0.08
-0.1635,-0.1305,0.0325,0.1465,-0.098,-0.049,-0.1015,-0.0585,0.0705,0.009,0.055,0.005,0.0875,0.019,0.082
-0.1595,-0.1305,0.029,0.145,-0.094,-0.0505,-0.1045,-0.061,0.0665,0.0035,0.051,0.0015,0.087,0.02,0.0845
-0.156,-0.13,0.026,0.1425,-0.091,-0.052,-0.106,-0.0625,0.065,0.0015,0.049,0.0015,0.0895,0.02,0.087
-0.157,-0.131,0.026,0.1435,-0.0915,-0.0525,-0.106,-0.063,0.067,0.004,0.0505,0.002,0.091,0.022,0.0855
-0.1595,-0.134,0.0255,0.1465,-0.092,-0.0545,-0.1045,-0.062,0.0665,0.005,0.051,0.0015,0.09,0.02,0.084
-0.157,-0.1335,0.024,0.145,-0.09,-0.0545,-0.105,-0.062,0.066,0.005,0.052,0.0025,0.0905,0.0205,0.0835
-0.157,-0.138,0.019,0.147,-0.088,-0.0595,-0.102,-0.06,0.0665,0.005,0.051,0.0035,0.09,0.014,0.086
-0.158,-0.1445,0.0135,0.151,-0.0855,-0.0655,-0.1,-0.0575,0.067,0.0045,0.0505,0.0025,0.09,0.0045,0.088
-0.156,-0.144,0.012,0.15,-0.084,-0.066,-0.1005,-0.0565,0.0695,0.0065,0.0535,0.004,0.0915,0.0015,0.087
-0.155,-0.1435,0.0115,0.149,-0.083,-0.066,-0.1015,-0.0575,0.0685,0.008,0.0515,0.002,0.091,0.0005,0.0865
-0.153,-0.1415,0.0115,0.147,-0.082,-0.0655,-0.101,-0.057,0.068,0.007,0.0505,0.002,0.0915,0.0,0.0865
-0.153,-0.1395,0.014,0.146,-0.0835,-0.063,-0.099,-0.056,0.0715,0.009,0.053,0.005,0.092,-0.0025,0.087
-0.156,-0.138,0.0175,0.147,-0.0865,-0.0605,-0.099,-0.0555,0.071,0.0085,0.0545,0.005,0.0915,-0.0015,0.086
-0.1575,-0.139,0.0185,0.148,-0.0875,-0.0605,-0.098,-0.055,0.071,0.009,0.0535,0.005,0.091,-0.0055,0.0845
-0.156,-0.1355,0.0205,0.1455,-0.088,-0.0575,-0.1,-0.0565,0.0695,0.008,0.0515,0.0045,0.0915,-0.0035,0.0845
-0.155,-0.1375,0.0175,0.146,-0.086,-0.06,-0.1025,-0.0575,0.0675,0.0055,0.0515,0.0025,0.0905,-0.006,0.085
-0.156,-0.1355,0.0205,0.1455,-0.088,-0.0575,-0.103,-0.061,0.067,0.005,0.0505,0.004,0.0905,-0.0055,0.0855
-0.157,-0.1315,0.0255,0.144,-0.091,-0.053,-0.104,-0.0635,0.0645,0.0035,0.051,0.0055,0.0895,-0.001,0.084
-0.156,-0.1315,0.025,0.1435,-0.0905,-0.0535,-0.105,-0.064,0.0645,0.003,0.051,0.0035,0.086,-0.0005,0.084
-0.1575,-0.131,0.0265,0.144,-0.092,-0.0525,-0.106,-0.0645,0.0645,0.0025,0.0495,0.0025,0.0865,0.006,0.085
-0.158,-0.1335,0.0245,0.1455,-0.091,-0.0545,-0.1065,-0.0665,0.0635,0.001,0.047,0.0005,0.085,0.0065,0.086
-0.152,-0.128,0.024,0.1395,-0.0875,-0.052,-0.107,-0.068,0.061,-0.003,0.0445,-0.002,0.0825,0.011,0.087
-0.148,-0.127,0.0215,0.137,-0.0845,-0.0525,-0.106,-0.0685,0.062,-0.0015,0.048,0.0,0.0835,0.014,0.0875
-0.149,-0.1315,0.0175,0.14,-0.083,-0.057,-0.108,-0.0695,0.06,0.0,0.0455,-0.0015,0.085,0.0135,0.0885
-0.156,-0.133,0.0225,0.1445,-0.089,-0.0555,-0.11,-0.0705,0.0575,-0.003,0.0425,-0.0065,0.0825,0.014,0.087
-0.1545,-0.1325,0.022,0.1435,-0.088,-0.0555,-0.1095,-0.071,0.058,-0.0015,0.046,-0.0035,0.084,0.011,0.087
-0.1495,-0.1355,0.014,0.142,-0.0815,-0.061,-0.1075,-0.067,0.06,0.0,0.048,-0.001,0.0865,0.01,0.0885
-0.152,-0.144,0.008,0.148,-0.0795,-0.068,-0.101,-0.0635,0.0635,0.0025,0.0505,-0.001,0.084,0.001,0.089
-0.152,-0.147,0.005,0.1495,-0.0785,-0.071,-0.101,-0.065,0.0635,0.006,0.049,0.0,0.0835,-0.009,0.089
-0.1495,-0.145,0.0045,0.147,-0.0765,-0.0705,-0.101,-0.0645,0.065,0.0065,0.05,-0.001,0.0845,-0.0145,0.088
-0.1455,-0.143,0.0025,0.144,-0.0735,-0.0705,-0.101,-0.062,0.0665,0.0045,0.053,0.0015,0.086,-0.014,0.087
-0.1475,-0.141,0.006,0.144,-0.0765,-0.0675,-0.1015,-0.0605,0.0665,0.007,0.055,0.005,0.0875,-0.0145,0.0855
-0.148,-0.137,0.011,0.1425,-0.079,-0.063,-0.102,-0.0625,0.067,0.0065,0.0555,0.0055,0.0885,-0.0185,0.084
-0.1485,-0.1365,0.0115,0.142,-0.0795,-0.0625,-0.101,-0.0635,0.0665,0.0055,0.0545,0.0055,0.0865,-0.0205,0.0855
-0.15,-0.1375,0.012,0.1435,-0.0805,-0.0625,-0.0985,-0.062,0.0665,0.0055,0.0535,0.0055,0.086,-0.0205,0.0865
-0.1455,-0.134,0.0115,0.1395,-0.078,-0.0615,-0.1005,-0.063,0.0625,0.0015,0.0505,0.0025,0.085,-0.0185,0.0865
-0.1455,-0.129,0.017,0.137,-0.081,-0.056,-0.103,-0.0675,0.0605,0.0005,0.049,0.001,0.084,-0.014,0.086
-0.1505,-0.1285,0.022,0.1395,-0.086,-0.053,-0.1075,-0.071,0.0565,-0.003,0.046,0.0,0.0845,-0.0085,0.086
-0.1555,-0.13,0.0255,0.1425,-0.09,-0.0525,-0.109,-0.074,0.0535,-0.005,0.044,-0.0015,0.0855,-0.006,0.0875
-0.153,-0.127,0.026,0.1395,-0.0895,-0.05,-0.111,-0.0755,0.0535,-0.0055,0.0425,-0.0025,0.0835,0.003,0.0875
-0.1525,-0.127,0.026,0.1395,-0.089,-0.0505,-0.1115,-0.0755,0.0525,-0.0055,0.042,-0.0035,0.084,0.0065,0.089
-0.151,-0.127,0.0245,0.139,-0.0875,-0.051,-0.1115,-0.0775,0.052,-0.008,0.042,-0.0045,0.084,0.011,0.0915
-0.1495,-0.128,0.0215,0.1385,-0.0855,-0.053,-0.112,-0.078,0.051,-0.011,0.039,-0.006,0.081,0.0155,0.091
-0.152,-0.1315,0.021,0.1415,-0.0865,-0.055,-0.112,-0.0785,0.0525,-0.0115,0.04,-0.0065,0.0815,0.0125,0.089
-0.149,-0.127,0.022,0.1375,-0.085,-0.0525,-0.1115,-0.0775,0.053,-0.011,0.042,-0.006,0.08,0.016,0.087
-0.1495,-0.126,0.0235,0.1375,-0.086,-0.051,-0.1105,-0.0765,0.052,-0.01,0.0415,-0.003,0.0805,0.012,0.0875
-0.1505,-0.1365,0.0135,0.143,-0.082,-0.0615,-0.1085,-0.076,0.054,-0.0105,0.0425,-0.0015,0.0805,0.002,0.0895
-0.1515,-0.1455,0.006,0.1485,-0.0785,-0.0695,-0.1035,-0.073,0.0555,-0.01,0.0415,-0.0045,0.0775,-0.0065,0.0915
-0.151,-0.145,0.0065,0.1475,-0.0785,-0.0695,-0.1035,-0.072,0.056,-0.01,0.041,-0.005,0.08,-0.01,0.0925
-0.1425,-0.1355,0.007,0.139,-0.0745,-0.0645,-0.1015,-0.0695,0.059,-0.0075,0.0445,-0.003,0.0795,-0.01,0.0925
-0.1405,-0.132,0.009,0.136,-0.0745,-0.0615,-0.1005,-0.0675,0.06,-0.006,0.0455,-0.0015,0.078,-0.012,0.0905
-0.1455,-0.136,0.0095,0.1405,-0.077,-0.063,-0.1005,-0.07,0.059,-0.006,0.0445,0.001,0.08,-0.016,0.0895
-0.1475,-0.1365,0.011,0.142,-0.079,-0.063,-0.1025,-0.0725,0.0575,-0.006,0.0455,0.0,0.0805,-0.0225,0.09
-0.1505,-0.1375,0.0135,0.1435,-0.0815,-0.062,-0.105,-0.0735,0.055,-0.0085,0.045,0.0,0.0805,-0.02,0.0905
-0.149,-0.136,0.013,0.1425,-0.0805,-0.0615,-0.106,-0.075,0.053,-0.0115,0.041,-0.001,0.079,-0.017,0.091
-0.1455,-0.1355,0.01,0.1405,-0.0775,-0.063,-0.106,-0.076,0.0525,-0.013,0.0415,-0.002,0.08,-0.0165,0.091
-0.149,-0.136,0.013,0.142,-0.0805,-0.0615,-0.107,-0.0775,0.051,-0.0125,0.0425,-0.001,0.08,-0.015,0.0895
-0.1495,-0.1325,0.017,0.141,-0.083,-0.058,-0.1095,-0.08,0.0485,-0.0145,0.04,-0.0015,0.078,-0.0105,0.0885
-0.1495,-0.13,0.0195,0.1395,-0.084,-0.055,-0.1125,-0.0825,0.0475,-0.0165,0.0395,-0.0025,0.0785,-0.004,0.0885
-0.15,-0.1335,0.017,0.1415,-0.0835,-0.058,-0.113,-0.0855,0.044,-0.0175,0.039,-0.004,0.0795,-0.006,0.089
-0.1485,-0.1345,0.014,0.1415,-0.081,-0.0605,-0.1145,-0.0855,0.0425,-0.02,0.036,-0.0055,0.0795,-0.003,0.0915
-0.146,-0.134,0.012,0.14,-0.079,-0.061,-0.117,-0.088,0.0405,-0.023,0.035,-0.007,0.0795,0.0025,0.0935
-0.1465,-0.1375,0.0095,0.1415,-0.0775,-0.064,-0.117,-0.0895,0.0395,-0.022,0.032,-0.0095,0.078,0.002,0.0935
-0.1495,-0.1395,0.01,0.1445,-0.0795,-0.0645,-0.1175,-0.0895,0.0395,-0.021,0.031,-0.01,0.078,0.0005,0.093
-0.1495,-0.137,0.0125,0.143,-0.081,-0.062,-0.1165,-0.089,0.039,-0.0205,0.034,-0.007,0.08,0.001,0.0915
-0.1505,-0.1335,0.0175,0.1415,-0.0835,-0.058,-0.1155,-0.085,0.0435,-0.0175,0.0365,-0.005,0.0795,0.006,0.0905
-0.153,-0.1395,0.0135,0.146,-0.083,-0.063,-0.11,-0.082,0.045,-0.017,0.038,-0.0045,0.078,-0.0015,0.0925
-0.154,-0.149,0.005,0.1515,-0.079,-0.072,-0.1075,-0.0805,0.046,-0.018,0.036,-0.0065,0.0775,-0.016,0.095
-0.152,-0.151,0.0005,0.1515,-0.076,-0.075,-0.1075,-0.08,0.0455,-0.017,0.0375,-0.0055,0.078,-0.018,0.095
-0.15,-0.147,0.0025,0.148,-0.076,-0.072,-0.1045,-0.0805,0.046,-0.016,0.0375,-0.0025,0.08,-0.0195,0.093
-0.149,-0.146,0.003,0.1475,-0.076,-0.0715,-0.106,-0.079,0.047,-0.015,0.0385,-0.0015,0.081,-0.025,0.0925
-0.147,-0.1435,0.0035,0.145,-0.075,-0.07,-0.1075,-0.0805,0.045,-0.015,0.0395,-0.0015,0.0825,-0.0235,0.0925
-0.149,-0.142,0.0065,0.145,-0.0775,-0.0675,-0.106,-0.08,0.0475,-0.0135,0.043,0.0005,0.082,-0.026,0.0895
-0.153,-0.1435,0.0095,0.1485,-0.081,-0.067,-0.107,-0.0805,0.046,-0.014,0.0425,-0.0005,0.0795,-0.0295,0.09
-0.155,-0.1445,0.01,0.1495,-0.0825,-0.0675,-0.108,-0.0815,0.043,-0.0165,0.0385,-0.002,0.0795,-0.03,0.0925
-0.153,-0.1465,0.0065,0.1495,-0.0795,-0.07,-0.11,-0.083,0.043,-0.017,0.039,-0.003,0.0805,-0.0285,0.0935
-0.1545,-0.143,0.0115,0.1485,-0.083,-0.066,-0.112,-0.0875,0.0395,-0.019,0.037,-0.004,0.08,-0.0235,0.0915
-0.1575,-0.144,0.0135,0.1505,-0.0855,-0.0655,-0.114,-0.091,0.035,-0.0225,0.035,-0.005,0.0795,-0.025,0.09
-0.1605,-0.144,0.0165,0.152,-0.088,-0.064,-0.117,-0.0935,0.0325,-0.025,0.0335,-0.0045,0.0805,-0.019,0.0925
-0.163,-0.1475,0.015,0.155,-0.0885,-0.0665,-0.1155,-0.0945,0.031,-0.024,0.0325,-0.004,0.0805,-0.014,0.091
-0.1655,-0.151,0.0145,0.158,-0.09,-0.0685,-0.117,-0.0935,0.03,-0.025,0.0315,-0.0055,0.0795,-0.013,0.092
-0.166,-0.148,0.018,0.157,-0.092,-0.065,-0.12,-0.0975,0.0285,-0.0295,0.0295,-0.009,0.0775,-0.0085,0.0925
-0.164,-0.15,0.014,0.1565,-0.0885,-0.068,-0.1205,-0.098,0.028,-0.0295,0.0295,-0.01,0.078,-0.004,0.0935
-0.1625,-0.152,0.011,0.157,-0.0865,-0.0705,-0.1195,-0.0945,0.0315,-0.0285,0.0295,-0.009,0.0805,-0.004,0.094
-0.16,-0.1505,0.0095,0.155,-0.0845,-0.0705,-0.119,-0.097,0.0285,-0.0315,0.028,-0.0115,0.0795,-0.0055,0.0925
-0.1595,-0.148,0.011,0.1535,-0.085,-0.0685,-0.1185,-0.097,0.028,-0.0305,0.027,-0.0105,0.077,-0.007,0.096
-0.1565,-0.1535,0.0035,0.155,-0.08,-0.075,-0.1155,-0.0935,0.031,-0.0285,0.029,-0.01,0.077,-0.0165,0.0985
-0.156,-0.161,-0.005,0.1585,-0.0755,-0.083,-0.1115,-0.0905,0.0335,-0.027,0.031,-0.01,0.0765,-0.0225,0.1
-0.1545,-0.1605,-0.0055,0.1575,-0.0745,-0.083,-0.1115,-0.09,0.035,-0.0255,0.0305,-0.01,0.077,-0.0265,0.0985
-0.151,-0.156,-0.0045,0.1535,-0.073,-0.08,-0.111,-0.0895,0.0365,-0.0245,0.0325,-0.0085,0.0765,-0.0265,0.096
-0.154,-0.1555,-0.0015,0.1545,-0.076,-0.0785,-0.1115,-0.09,0.035,-0.0255,0.0325,-0.0085,0.0765,-0.0225,0.0955
-0.16,-0.16,0.0,0.16,-0.08,-0.08,-0.1145,-0.0925,0.032,-0.028,0.029,-0.011,0.076,-0.0275,0.096
-0.1635,-0.162,0.0015,0.162,-0.082,-0.08,-0.1135,-0.092,0.0315,-0.025,0.0295,-0.011,0.074,-0.031,0.0945
-0.163,-0.1585,0.0045,0.1605,-0.0835,-0.077,-0.1145,-0.0935,0.0305,-0.0275,0.029,-0.0105,0.074,-0.026,0.095
-0.1605,-0.1595,0.001,0.16,-0.0805,-0.079,-0.116,-0.0945,0.031,-0.0305,0.0285,-0.011,0.073,-0.027,0.0955
-0.1615,-0.1615,0.0,0.161,-0.08,-0.0805,-0.117,-0.0955,0.029,-0.03,0.027,-0.011,0.0735,-0.0285,0.0945
-0.1665,-0.1585,0.008,0.162,-0.0865,-0.0755,-0.118,-0.098,0.028,-0.032,0.026,-0.011,0.0735,-0.0255,0.095
-0.165,-0.161,0.004,0.1625,-0.084,-0.0785,-0.12,-0.099,0.0265,-0.033,0.0275,-0.0105,0.0725,-0.027,0.0925
-0.1655,-0.159,0.0065,0.162,-0.0855,-0.076,-0.1235,-0.104,0.022,-0.036,0.0255,-0.0115,0.074,-0.021,0.0935
-0.1685,-0.1595,0.009,0.1635,-0.0885,-0.075,-0.1235,-0.1055,0.021,-0.0365,0.024,-0.013,0.0735,-0.017,0.094
-0.167,-0.162,0.0055,0.1645,-0.086,-0.078,-0.1255,-0.1045,0.0195,-0.0385,0.022,-0.014,0.074,-0.013,0.095
-0.167,-0.163,0.0045,0.165,-0.0855,-0.079,-0.1265,-0.107,0.02,-0.04,0.0205,-0.0165,0.074,-0.009,0.0955
-0.1685,-0.1685,0.0,0.168,-0.084,-0.084,-0.126,-0.107,0.019,-0.0405,0.02,-0.017,0.074,-0.0125,0.096
-0.173,-0.1705,0.0025,0.1715,-0.0875,-0.084,-0.1265,-0.108,0.017,-0.0405,0.0185,-0.018,0.075,-0.013,0.0985
-0.176,-0.172,0.0045,0.1735,-0.09,-0.0835,-0.1265,-0.1085,0.0165,-0.039,0.0195,-0.018,0.0745,-0.0115,0.096
-0.1735,-0.1715,0.002,0.1725,-0.0875,-0.0845,-0.1275,-0.109,0.0155,-0.04,0.0195,-0.019,0.074,-0.0115,0.0945
-0.176,-0.179,-0.003,0.177,-0.086,-0.091,-0.1245,-0.107,0.0175,-0.039,0.02,-0.0215,0.0735,-0.02,0.096
-0.1775,-0.1835,-0.006,0.1805,-0.0855,-0.0945,-0.122,-0.1045,0.02,-0.0385,0.0205,-0.021,0.073,-0.023,0.097
-0.173,-0.18,-0.007,0.1765,-0.083,-0.0935,-0.121,-0.1045,0.02,-0.0385,0.018,-0.0215,0.073,-0.025,0.097
-0.17,-0.1755,-0.006,0.1725,-0.0815,-0.091,-0.1225,-0.1055,0.0185,-0.038,0.018,-0.022,0.074,-0.027,0.0965
-0.173,-0.1765,-0.0035,0.1745,-0.0845,-0.09,-0.122,-0.1045,0.019,-0.038,0.0205,-0.019,0.0755,-0.031,0.0975
-0.174,-0.175,-0.001,0.1745,-0.0865,-0.088,-0.12,-0.1015,0.021,-0.0365,0.023,-0.0175,0.0745,-0.037,0.095
-0.1705,-0.171,-0.0005,0.1705,-0.085,-0.086,-0.1195,-0.1045,0.02,-0.0365,0.025,-0.0155,0.075,-0.038,0.0905
-0.1695,-0.169,0.0,0.169,-0.0845,-0.0845,-0.119,-0.104,0.019,-0.036,0.024,-0.0145,0.0755,-0.037,0.0905
-0.1705,-0.166,0.0045,0.168,-0.087,-0.081,-0.1205,-0.103,0.018,-0.0365,0.023,-0.0155,0.0755,-0.0365,0.093
-0.1695,-0.1665,0.003,0.168,-0.086,-0.082,-0.12,-0.105,0.0195,-0.0355,0.0235,-0.016,0.0755,-0.039,0.096
-0.1675,-0.16,0.008,0.1635,-0.0875,-0.076,-0.124,-0.1075,0.0155,-0.038,0.0205,-0.0175,0.0735,-0.03,0.0955
-0.166,-0.1585,0.008,0.162,-0.087,-0.0755,-0.125,-0.108,0.012,-0.041,0.0205,-0.0175,0.072,-0.023,0.0945
-0.1695,-0.162,0.008,0.1655,-0.0885,-0.077,-0.126,-0.11,0.012,-0.0405,0.021,-0.017,0.074,-0.0265,0.0945
-0.1745,-0.1645,0.0105,0.1695,-0.0925,-0.077,-0.1295,-0.114,0.009,-0.044,0.018,-0.0195,0.073,-0.0245,0.096
-0.1745,-0.1665,0.0085,0.1705,-0.091,-0.079,-0.1285,-0.1135,0.007,-0.045,0.0165,-0.021,0.071,-0.0175,0.0985
-0.167,-0.161,0.006,0.164,-0.0865,-0.0775,-0.13,-0.115,0.007,-0.0465,0.015,-0.021,0.0745,-0.0075,0.0995
-0.163,-0.161,0.002,0.1615,-0.0825,-0.0795,-0.1315,-0.1155,0.0065,-0.0475,0.0145,-0.0205,0.076,-0.001,0.1
-0.1695,-0.1665,0.003,0.1675,-0.086,-0.082,-0.1325,-0.1165,0.0045,-0.0485,0.015,-0.0235,0.075,-0.002,0.0995
-0.174,-0.1715,0.003,0.1725,-0.0885,-0.084,-0.1345,-0.1175,0.0055,-0.048,0.0135,-0.0225,0.0765,-0.004,0.098
-0.1725,-0.1715,0.001,0.1715,-0.0865,-0.085,-0.1345,-0.1175,0.006,-0.0485,0.013,-0.022,0.076,-0.01,0.0985
-0.173,-0.177,-0.004,0.175,-0.084,-0.0905,-0.1305,-0.117,0.004,-0.0515,0.012,-0.024,0.0735,-0.021,0.1005
-0.174,-0.1825,-0.0085,0.178,-0.0825,-0.0955,-0.1255,-0.1115,0.0095,-0.0455,0.0135,-0.0235,0.0715,-0.0265,0.1005
-0.1705,-0.182,-0.0115,0.176,-0.0795,-0.0965,-0.125,-0.11,0.012,-0.0445,0.016,-0.0235,0.071,-0.0295,0.1005
-0.1695,-0.181,-0.012,0.175,-0.0785,-0.0965,-0.126,-0.1115,0.0095,-0.047,0.0135,-0.0255,0.07,-0.034,0.1
-0.1665,-0.177,-0.0105,0.1715,-0.0775,-0.094,-0.125,-0.112,0.0085,-0.047,0.016,-0.023,0.0715,-0.034,0.0995
-0.1675,-0.176,-0.0085,0.1715,-0.0795,-0.092,-0.1235,-0.109,0.012,-0.0445,0.019,-0.017,0.075,-0.038,0.0995
-0.165,-0.1705,-0.0055,0.1675,-0.0795,-0.088,-0.12,-0.1045,0.0175,-0.0375,0.022,-0.014,0.0735,-0.046,0.0975
-0.1685,-0.169,-0.0005,0.1685,-0.0835,-0.085,-0.1185,-0.1045,0.017,-0.036,0.024,-0.0135,0.0725,-0.046,0.098
-0.177,-0.1735,0.004,0.175,-0.09,-0.085,-0.121,-0.106,0.0145,-0.0375,0.0215,-0.015,0.073,-0.043,0.0975
-0.177,-0.173,0.004,0.1745,-0.09,-0.0845,-0.122,-0.1095,0.0135,-0.0395,0.0205,-0.0165,0.073,-0.0445,0.0975
-0.1755,-0.168,0.0075,0.1715,-0.0915,-0.0805,-0.1245,-0.112,0.011,-0.042,0.021,-0.017,0.0715,-0.042,0.0955
-0.172,-0.1665,0.006,0.169,-0.089,-0.0805,-0.1265,-0.112,0.0095,-0.042,0.0205,-0.016,0.0715,-0.037,0.0945
-0.1735,-0.1675,0.006,0.1705,-0.0895,-0.081,-0.1255,-0.1135,0.01,-0.044,0.02,-0.015,0.0725,-0.034,0.0955
-0.1735,-0.165,0.009,0.169,-0.091,-0.078,-0.127,-0.1145,0.0085,-0.0455,0.021,-0.016,0.072,-0.027,0.0955
-0.173,-0.1645,0.0085,0.1685,-0.0905,-0.078,-0.129,-0.116,0.0055,-0.047,0.016,-0.0195,0.0715,-0.0205,0.0965
-0.1715,-0.1665,0.005,0.169,-0.088,-0.081,-0.1315,-0.1185,0.0035,-0.049,0.013,-0.022,0.072,-0.018,0.0965
-0.1705,-0.1705,0.0,0.17,-0.085,-0.0855,-0.1305,-0.1175,0.005,-0.049,0.0145,-0.022,0.071,-0.023,0.0965
-0.1695,-0.172,-0.0025,0.17,-0.0835,-0.087,-0.129,-0.117,0.0055,-0.048,0.0145,-0.022,0.0705,-0.0245,0.097
-0.169,-0.1695,-0.0005,0.169,-0.084,-0.085,-0.13,-0.119,0.004,-0.0475,0.014,-0.023,0.07,-0.017,0.0965
-0.1715,-0.169,0.003,0.17,-0.087,-0.083,-0.131,-0.12,0.0025,-0.049,0.014,-0.0235,0.07,-0.0145,0.096
-0.1675,-0.173,-0.0055,0.17,-0.081,-0.089,-0.13,-0.1165,0.0045,-0.0475,0.015,-0.022,0.072,-0.0165,0.0985
-0.169,-0.181,-0.0125,0.1745,-0.078,-0.0965,-0.126,-0.114,0.008,-0.047,0.015,-0.0225,0.0705,-0.023,0.1005
-0.1705,-0.184,-0.0135,0.177,-0.0785,-0.0985,-0.1245,-0.112,0.007,-0.046,0.0155,-0.0215,0.0705,-0.0285,0.1005
-0.171,-0.1795,-0.009,0.175,-0.0805,-0.0945,-0.1245,-0.11,0.0065,-0.045,0.017,-0.0215,0.071,-0.033,0.1
-0.1735,-0.1785,-0.005,0.176,-0.0845,-0.092,-0.125,-0.113,0.0075,-0.045,0.018,-0.02,0.072,-0.04,0.1
-0.172,-0.178,-0.0065,0.175,-0.0825,-0.092,-0.1255,-0.113,0.0095,-0.0425,0.0185,-0.0185,0.0725,-0.0405,0.099
-0.17,-0.175,-0.0055,0.1725,-0.0815,-0.0905,-0.125,-0.1125,0.01,-0.0435,0.02,-0.02,0.071,-0.038,0.0965
-0.172,-0.178,-0.006,0.175,-0.083,-0.092,-0.1225,-0.114,0.009,-0.0425,0.018,-0.019,0.0705,-0.0435,0.0975
-0.173,-0.177,-0.004,0.175,-0.084,-0.0905,-0.1225,-0.112,0.0095,-0.0425,0.0175,-0.018,0.071,-0.0455,0.099
-0.1705,-0.1755,-0.005,0.173,-0.0825,-0.09,-0.1235,-0.1115,0.0095,-0.043,0.019,-0.019,0.0705,-0.043,0.1
-0.172,-0.1685,0.0035,0.17,-0.0875,-0.0825,-0.1265,-0.1145,0.006,-0.0445,0.0195,-0.0205,0.07,-0.035,0.0965
-0.1735,-0.164,0.01,0.1685,-0.0915,-0.077,-0.13,-0.1195,0.004,-0.0445,0.02,-0.02,0.0715,-0.028,0.0965
-0.173,-0.1675,0.006,0.17,-0.0895,-0.0805,-0.1285,-0.119,0.003,-0.047,0.0185,-0.0205,0.071,-0.0295,0.1005
-0.1735,-0.1675,0.006,0.1705,-0.0895,-0.081,-0.13,-0.117,0.0025,-0.0515,0.016,-0.021,0.0705,-0.0285,0.1
-0.1725,-0.1675,0.0055,0.17,-0.089,-0.081,-0.1315,-0.1155,0.002,-0.0515,0.0145,-0.0225,0.0685,-0.0245,0.102
-0.1695,-0.163,0.006,0.166,-0.0875,-0.0785,-0.131,-0.1205,0.0,-0.0525,0.015,-0.025,0.068,-0.019,0.1025
-0.1675,-0.164,0.0035,0.1655,-0.085,-0.0805,-0.1295,-0.1215,0.001,-0.0505,0.0155,-0.024,0.068,-0.0165,0.101
-0.1665,-0.1645,0.002,0.1655,-0.084,-0.081,-0.1285,-0.117,0.003,-0.051,0.014,-0.0225,0.0685,-0.0135,0.101
-0.1665,-0.163,0.0035,0.164,-0.0845,-0.0795,-0.1295,-0.1195,0.003,-0.0525,0.014,-0.0215,0.0705,-0.013,0.1
-0.1705,-0.168,0.0025,0.169,-0.0865,-0.083,-0.132,-0.121,0.002,-0.0515,0.015,-0.022,0.069,-0.015,0.099
-0.1745,-0.179,-0.0045,0.1765,-0.0845,-0.092,-0.131,-0.121,0.0025,-0.0545,0.011,-0.026,0.0685,-0.021,0.102
-0.1735,-0.1845,-0.011,0.179,-0.0815,-0.098,-0.126,-0.117,0.0055,-0.053,0.0115,-0.026,0.0685,-0.03,0.105
-0.1695,-0.1825,-0.013,0.176,-0.078,-0.098,-0.126,-0.114,0.0075,-0.05,0.0145,-0.0235,0.0685,-0.0315,0.104
-0.1695,-0.181,-0.0115,0.175,-0.0785,-0.096,-0.126,-0.1145,0.009,-0.0505,0.016,-0.022,0.068,-0.0385,0.1015
-0.17,-0.1785,-0.0085,0.174,-0.0805,-0.0935,-0.1245,-0.114,0.009,-0.0495,0.018,-0.021,0.069,-0.0445,0.1005
-0.171,-0.1785,-0.0075,0.1745,-0.0815,-0.093,-0.125,-0.1145,0.008,-0.0495,0.0175,-0.021,0.07,-0.043,0.1
-0.172,-0.178,-0.006,0.175,-0.083,-0.092,-0.127,-0.117,0.006,-0.0495,0.0175,-0.0215,0.069,-0.0435,0.098
-0.174,-0.179,-0.005,0.176,-0.0845,-0.092,-0.126,-0.1155,0.0055,-0.05,0.0155,-0.0225,0.07,-0.0435,0.099
-0.176,-0.1775,-0.002,0.1765,-0.087,-0.09,-0.125,-0.116,0.007,-0.0505,0.0175,-0.021,0.072,-0.04,0.1
-0.1715,-0.1755,-0.004,0.1735,-0.0835,-0.09,-0.1275,-0.117,0.0085,-0.0495,0.0165,-0.02,0.073,-0.04,0.099
-0.1745,-0.171,0.0035,0.1725,-0.0885,-0.084,-0.1305,-0.1185,0.0065,-0.0495,0.016,-0.0195,0.0715,-0.0345,0.098
-0.1765,-0.1705,0.006,0.1735,-0.091,-0.0825,-0.133,-0.1235,0.0015,-0.0545,0.015,-0.021,0.068,-0.0305,0.0965
-0.1775,-0.176,0.002,0.1765,-0.0895,-0.087,-0.1335,-0.1235,-0.0005,-0.057,0.0125,-0.0245,0.066,-0.0295,0.098
-0.181,-0.176,0.005,0.1785,-0.093,-0.0855,-0.1345,-0.125,-0.002,-0.057,0.0125,-0.026,0.066,-0.024,0.0975
-0.178,-0.178,0.0005,0.178,-0.089,-0.089,-0.1345,-0.1265,-0.0025,-0.06,0.0115,-0.0255,0.067,-0.02,0.098
-0.1785,-0.178,0.0005,0.178,-0.089,-0.089,-0.1355,-0.1265,-0.0025,-0.0595,0.0115,-0.0255,0.0695,-0.014,0.0995
-0.1815,-0.18,0.001,0.1805,-0.091,-0.0895,-0.1375,-0.127,-0.002,-0.059,0.0095,-0.028,0.068,-0.0125,0.1
-0.1775,-0.1785,-0.001,0.1775,-0.088,-0.09,-0.139,-0.127,-0.004,-0.061,0.0085,-0.0285,0.0675,-0.0055,0.099
-0.1775,-0.174,0.0035,0.176,-0.0905,-0.0855,-0.139,-0.1285,-0.006,-0.062,0.0075,-0.0285,0.0675,-0.004,0.098
-0.1805,-0.175,0.0055,0.1775,-0.0925,-0.085,-0.141,-0.1295,-0.0065,-0.061,0.0065,-0.0295,0.067,-0.0055,0.0985
-0.1785,-0.18,-0.0015,0.179,-0.088,-0.091,-0.139,-0.1275,-0.003,-0.06,0.006,-0.0295,0.0675,-0.007,0.0985
-0.1805,-0.1885,-0.0085,0.184,-0.086,-0.0985,-0.132,-0.125,0.002,-0.0595,0.0065,-0.0305,0.065,-0.0195,0.1015
-0.1805,-0.1895,-0.009,0.1845,-0.0855,-0.099,-0.131,-0.124,0.0025,-0.058,0.007,-0.029,0.066,-0.0225,0.1015
-0.1805,-0.1875,-0.0075,0.184,-0.0865,-0.0975,-0.131,-0.1225,0.003,-0.0565,0.0085,-0.028,0.0655,-0.024,0.1
-0.18,-0.185,-0.005,0.1825,-0.0875,-0.095,-0.131,-0.1215,0.003,-0.0555,0.009,-0.0265,0.0665,-0.0245,0.1
-0.178,-0.183,-0.005,0.18,-0.086,-0.094,-0.1305,-0.1195,0.005,-0.0525,0.012,-0.0235,0.0685,-0.026,0.099
-0.176,-0.1785,-0.0025,0.177,-0.0865,-0.0905,-0.129,-0.1185,0.0065,-0.0495,0.016,-0.0195,0.0695,-0.028,0.0975
-0.174,-0.1725,0.0015,0.173,-0.0875,-0.0855,-0.131,-0.119,0.005,-0.05,0.016,-0.019,0.0705,-0.0225,0.098
-0.1715,-0.1695,0.002,0.1705,-0.0865,-0.084,-0.132,-0.119,0.006,-0.05,0.0145,-0.022,0.0685,-0.02,0.098
-0.1695,-0.166,0.0035,0.1675,-0.086,-0.0815,-0.131,-0.1225,0.004,-0.0505,0.013,-0.0215,0.068,-0.0165,0.097
-0.1705,-0.1565,0.014,0.1635,-0.092,-0.071,-0.1335,-0.1225,0.0035,-0.05,0.015,-0.0195,0.0695,-0.006,0.095
-0.169,-0.1495,0.0195,0.159,-0.094,-0.065,-0.1345,-0.1245,0.0055,-0.05,0.0155,-0.019,0.0695,0.001,0.092
-0.167,-0.1505,0.0165,0.1585,-0.0915,-0.067,-0.133,-0.125,0.0045,-0.0495,0.014,-0.02,0.067,0.003,0.0925
-0.1665,-0.1495,0.017,0.1575,-0.0915,-0.066,-0.132,-0.1225,0.0045,-0.048,0.0165,-0.0185,0.0695,0.0095,0.0915
-0.164,-0.147,0.017,0.155,-0.09,-0.065,-0.1305,-0.1215,0.0055,-0.048,0.015,-0.018,0.0715,0.0165,0.093
-0.1615,-0.145,0.0165,0.1535,-0.089,-0.0645,-0.1295,-0.1195,0.008,-0.047,0.0155,-0.017,0.072,0.0205,0.0925
-0.159,-0.144,0.015,0.151,-0.0865,-0.0645,-0.1285,-0.118,0.0105,-0.044,0.018,-0.0155,0.0725,0.026,0.0915
-0.1595,-0.1405,0.019,0.15,-0.089,-0.0605,-0.1245,-0.116,0.0125,-0.042,0.0195,-0.015,0.0725,0.031,0.091
-0.1635,-0.136,0.027,0.1495,-0.095,-0.0545,-0.1215,-0.114,0.0155,-0.038,0.0235,-0.011,0.0735,0.037,0.0895
-0.167,-0.134,0.0325,0.1505,-0.0995,-0.0505,-0.122,-0.1135,0.0175,-0.034,0.0255,-0.009,0.073,0.043,0.0885
-0.167,-0.139,0.028,0.153,-0.0975,-0.0555,-0.1175,-0.1115,0.0205,-0.0335,0.0275,-0.0085,0.0725,0.0405,0.0895
-0.165,-0.1435,0.021,0.154,-0.0925,-0.0615,-0.109,-0.1075,0.024,-0.0325,0.028,-0.008,0.071,0.037,0.091
-0.1635,-0.142,0.0215,0.153,-0.0925,-0.0605,-0.105,-0.105,0.026,-0.032,0.028,-0.008,0.0705,0.0365,0.0885
-0.1635,-0.139,0.024,0.151,-0.0935,-0.0575,-0.101,-0.104,0.028,-0.03,0.03,-0.0075,0.07,0.0345,0.0855
-0.1635,-0.1355,0.028,0.1495,-0.0955,-0.054,-0.098,-0.1035,0.031,-0.0275,0.032,-0.005,0.0695,0.034,0.0825
-0.16,-0.1305,0.029,0.145,-0.0945,-0.0505,-0.096,-0.1015,0.0325,-0.0255,0.0335,-0.003,0.071,0.0375,0.08
-0.155,-0.124,0.0315,0.1395,-0.093,-0.0465,-0.092,-0.098,0.0335,-0.0225,0.0365,-0.0005,0.072,0.0375,0.0775
-0.1605,-0.126,0.0345,0.1425,-0.097,-0.0455,-0.09,-0.0995,0.0335,-0.0225,0.0355,-0.001,0.071,0.031,0.077
-0.159,-0.127,0.0325,0.1425,-0.0955,-0.047,-0.0885,-0.0985,0.0335,-0.023,0.0345,-0.0015,0.072,0.0295,0.0775
-0.153,-0.1245,0.0285,0.139,-0.091,-0.048,-0.087,-0.0965,0.036,-0.023,0.037,-0.0005,0.0735,0.029,0.077
-0.1575,-0.1215,0.036,0.139,-0.0965,-0.0425,-0.0865,-0.0975,0.0355,-0.023,0.0365,-0.0025,0.0715,0.0315,0.0765
-0.162,-0.12,0.0415,0.1405,-0.1015,-0.0395,-0.089,-0.1,0.031,-0.0255,0.0335,-0.0035,0.074,0.0405,0.0745
-0.1665,-0.1235,0.043,0.145,-0.1045,-0.04,-0.0865,-0.099,0.0335,-0.023,0.036,-0.0025,0.076,0.044,0.074
-0.166,-0.123,0.0435,0.144,-0.1045,-0.04,-0.0825,-0.096,0.037,-0.02,0.0385,-0.002,0.0755,0.048,0.072
-0.1595,-0.1185,0.041,0.1385,-0.1,-0.0385,-0.0835,-0.097,0.037,-0.0205,0.038,-0.001,0.0765,0.0505,0.073
-0.155,-0.1165,0.0385,0.1355,-0.0965,-0.0395,-0.0845,-0.097,0.037,-0.0235,0.037,-0.001,0.0765,0.0555,0.0745
-0.1495,-0.1155,0.0335,0.1325,-0.0915,-0.041,-0.0825,-0.0945,0.039,-0.022,0.0375,-0.001,0.077,0.06,0.074
-0.147,-0.11,0.0365,0.1285,-0.0915,-0.037,-0.08,-0.0915,0.042,-0.017,0.0395,0.0005,0.078,0.0555,0.075
-0.153,-0.114,0.0385,0.1335,-0.0955,-0.038,-0.0815,-0.0915,0.042,-0.0185,0.0395,-0.0005,0.081,0.0575,0.073
-0.1555,-0.1195,0.0355,0.1375,-0.0955,-0.042,-0.082,-0.0895,0.0435,-0.016,0.04,-0.001,0.083,0.0565,0.0735
-0.1525,-0.127,0.026,0.1395,-0.089,-0.0505,-0.08,-0.084,0.047,-0.014,0.039,-0.0005,0.0845,0.0455,0.077
-0.147,-0.134,0.013,0.1405,-0.08,-0.0605,-0.0795,-0.0795,0.053,-0.011,0.042,0.001,0.0875,0.0365,0.0785
-0.14,-0.1335,0.0065,0.1365,-0.073,-0.0635,-0.08,-0.076,0.057,-0.0055,0.0465,0.0055,0.0925,0.026,0.0765
-0.1365,-0.1305,0.0065,0.133,-0.0715,-0.0615,-0.0765,-0.0705,0.06,-0.001,0.05,0.0085,0.096,0.0235,0.0735
-0.1355,-0.125,0.0105,0.13,-0.073,-0.057,-0.076,-0.0705,0.06,0.002,0.0545,0.0105,0.0975,0.027,0.072
-0.1365,-0.1225,0.014,0.129,-0.075,-0.054,-0.0805,-0.074,0.0585,0.0,0.0535,0.012,0.098,0.0255,0.0725
-0.141,-0.12,0.021,0.13,-0.081,-0.0495,-0.0865,-0.076,0.0595,-0.0005,0.0545,0.013,0.0975,0.0265,0.073
-0.1425,-0.122,0.0205,0.132,-0.0815,-0.0505,-0.0905,-0.0765,0.061,0.001,0.0565,0.015,0.098,0.02,0.0735
-0.142,-0.1285,0.0135,0.135,-0.0775,-0.0575,-0.0935,-0.074,0.0625,0.001,0.0555,0.0155,0.1005,0.012,0.075
-0.14,-0.1325,0.0075,0.136,-0.0735,-0.0625,-0.1005,-0.078,0.058,-0.0015,0.054,0.0145,0.1045,0.0115,0.0795
-0.1365,-0.126,0.01,0.131,-0.073,-0.058,-0.11,-0.0835,0.0545,-0.0045,0.053,0.014,0.1075,0.0155,0.084
-0.1325,-0.122,0.0105,0.127,-0.0715,-0.0555,-0.121,-0.089,0.0505,-0.008,0.052,0.014,0.106,0.0175,0.084
-0.133,-0.13,0.0035,0.131,-0.068,-0.063,-0.129,-0.093,0.044,-0.0125,0.05,0.011,0.104,0.0095,0.0875
-0.1345,-0.138,-0.0035,0.136,-0.065,-0.0705,-0.1345,-0.098,0.0405,-0.0185,0.046,0.008,0.1045,0.0065,0.0935
-0.1335,-0.141,-0.007,0.137,-0.063,-0.074,-0.1385,-0.1015,0.035,-0.0235,0.042,0.007,0.105,0.009,0.096
-0.142,-0.148,-0.006,0.145,-0.068,-0.077,-0.1415,-0.104,0.0315,-0.029,0.037,0.002,0.1025,0.006,0.097
-0.145,-0.153,-0.008,0.149,-0.0685,-0.0805,-0.143,-0.107,0.0315,-0.03,0.033,0.0005,0.1035,0.004,0.099
-0.142,-0.151,-0.009,0.146,-0.0665,-0.08,-0.141,-0.106,0.0295,-0.03,0.034,-0.0015,0.1015,0.0055,0.0985
-0.1455,-0.151,-0.0055,0.148,-0.0695,-0.0785,-0.143,-0.107,0.027,-0.0315,0.035,-0.0015,0.1005,0.0015,0.0985
-0.146,-0.1525,-0.006,0.149,-0.0695,-0.079,-0.1435,-0.108,0.0255,-0.0325,0.035,0.002,0.1015,-0.0045,0.1005
-0.1465,-0.1635,-0.017,0.155,-0.0645,-0.0905,-0.1425,-0.107,0.0225,-0.035,0.032,-0.0015,0.0985,-0.0155,0.1035
-0.148,-0.1775,-0.0295,0.1625,-0.0595,-0.1035,-0.143,-0.1095,0.02,-0.037,0.0275,-0.005,0.095,-0.0275,0.1075
-0.148,-0.1845,-0.037,0.166,-0.0555,-0.1105,-0.145,-0.114,0.0145,-0.043,0.0235,-0.0075,0.093,-0.037,0.1095
-0.1505,-0.1845,-0.0345,0.1675,-0.058,-0.1095,-0.1465,-0.117,0.008,-0.0455,0.0225,-0.008,0.092,-0.0395,0.1115
-0.15,-0.1815,-0.0315,0.1655,-0.059,-0.1065,-0.148,-0.122,0.0045,-0.0485,0.0215,-0.008,0.09,-0.04,0.112
-0.1495,-0.182,-0.033,0.165,-0.058,-0.1075,-0.15,-0.1245,0.0035,-0.051,0.0185,-0.0095,0.0885,-0.0465,0.1125
-0.15,-0.18,-0.03,0.1645,-0.06,-0.105,-0.15,-0.1245,0.0025,-0.049,0.021,-0.0085,0.0875,-0.0465,0.1125
-0.152,-0.1805,-0.0285,0.1665,-0.062,-0.1045,-0.151,-0.128,-0.002,-0.0525,0.0205,-0.0085,0.0865,-0.0475,0.113
-0.153,-0.1825,-0.0295,0.168,-0.0615,-0.106,-0.1515,-0.13,-0.0045,-0.054,0.017,-0.0105,0.086,-0.0535,0.1155
-0.1505,-0.182,-0.032,0.166,-0.0585,-0.107,-0.1525,-0.1335,-0.0075,-0.055,0.018,-0.011,0.087,-0.053,0.1165
-0.1495,-0.1755,-0.0265,0.1625,-0.0615,-0.101,-0.1555,-0.135,-0.0075,-0.0555,0.019,-0.0095,0.0885,-0.048,0.1165
-0.1485,-0.1715,-0.023,0.16,-0.0625,-0.097,-0.156,-0.134,-0.009,-0.0555,0.0185,-0.009,0.0885,-0.0495,0.113
-0.142,-0.1715,-0.029,0.1565,-0.056,-0.1,-0.159,-0.136,-0.0125,-0.0585,0.0165,-0.011,0.0895,-0.045,0.114
-0.137,-0.1745,-0.0375,0.1555,-0.0495,-0.106,-0.157,-0.134,-0.01,-0.058,0.0165,-0.012,0.0915,-0.0425,0.1145
-0.1365,-0.1785,-0.0425,0.1575,-0.0465,-0.1105,-0.156,-0.1325,-0.0095,-0.0595,0.0145,-0.0155,0.0915,-0.0455,0.1105
-0.1335,-0.1795,-0.046,0.1565,-0.0435,-0.113,-0.1565,-0.1335,-0.0115,-0.062,0.012,-0.0175,0.0925,-0.0475,0.111
-0.133,-0.1825,-0.05,0.1575,-0.0415,-0.1165,-0.1545,-0.1305,-0.011,-0.0615,0.0125,-0.0165,0.0945,-0.054,0.1135
-0.1305,-0.1825,-0.052,0.156,-0.039,-0.117,-0.1535,-0.128,-0.0085,-0.0595,0.013,-0.015,0.0965,-0.0625,0.114
-0.129,-0.187,-0.058,0.1575,-0.0355,-0.122,-0.151,-0.125,-0.006,-0.0585,0.012,-0.0155,0.097,-0.0695,0.1115
-0.13,-0.19,-0.06,0.1595,-0.0345,-0.125,-0.1495,-0.125,-0.0075,-0.06,0.012,-0.0175,0.0945,-0.066,0.1105
-0.1285,-0.195,-0.066,0.1615,-0.031,-0.1305,-0.143,-0.1215,-0.0055,-0.0585,0.011,-0.0195,0.091,-0.0695,0.111
-0.1335,-0.205,-0.071,0.169,-0.031,-0.138,-0.139,-0.116,-0.0005,-0.0575,0.01,-0.0195,0.091,-0.08,0.111
-0.1375,-0.2065,-0.069,0.172,-0.034,-0.1375,-0.137,-0.114,0.003,-0.0525,0.014,-0.015,0.0935,-0.084,0.1095
-0.141,-0.202,-0.061,0.1715,-0.04,-0.1315,-0.1315,-0.1105,0.005,-0.05,0.0165,-0.0135,0.0925,-0.084,0.1065
-0.1425,-0.194,-0.0515,0.168,-0.045,-0.123,-0.1305,-0.109,0.008,-0.0485,0.019,-0.012,0.0915,-0.078,0.105
-0.1395,-0.1855,-0.046,0.162,-0.0465,-0.1155,-0.1285,-0.108,0.0135,-0.042,0.0245,-0.006,0.0935,-0.0705,0.102
-0.1375,-0.178,-0.0405,0.1575,-0.048,-0.1095,-0.127,-0.1055,0.016,-0.041,0.028,-0.0035,0.0935,-0.068,0.097
-0.1355,-0.1765,-0.041,0.156,-0.047,-0.109,-0.128,-0.1045,0.0165,-0.04,0.029,-0.003,0.094,-0.07,0.0975
-0.1335,-0.175,-0.042,0.154,-0.0455,-0.1085,-0.1305,-0.105,0.015,-0.0395,0.0285,-0.0015,0.095,-0.067,0.1005
-0.1285,-0.171,-0.0425,0.1495,-0.043,-0.107,-0.1365,-0.107,0.0135,-0.038,0.0295,-0.0015,0.095,-0.061,0.103
-0.125,-0.1595,-0.034,0.142,-0.045,-0.0965,-0.145,-0.113,0.0115,-0.039,0.0315,0.0015,0.0965,-0.0475,0.1045
-0.119,-0.151,-0.032,0.1345,-0.043,-0.0915,-0.1505,-0.1155,0.0105,-0.0395,0.034,0.006,0.1,-0.0405,0.106
-0.1155,-0.1525,-0.037,0.1335,-0.039,-0.0945,-0.152,-0.1145,0.0105,-0.037,0.0345,0.0045,0.1,-0.038,0.106
-0.1135,-0.1555,-0.042,0.1345,-0.0355,-0.099,-0.1535,-0.114,0.0095,-0.038,0.0345,0.004,0.1005,-0.036,0.1065
-0.108,-0.157,-0.049,0.1325,-0.029,-0.103,-0.155,-0.113,0.01,-0.038,0.0335,0.0065,0.105,-0.0395,0.109
-0.106,-0.151,-0.045,0.128,-0.03,-0.098,-0.1585,-0.115,0.0105,-0.039,0.031,0.0045,0.105,-0.0355,0.109
-0.1045,-0.1545,-0.05,0.129,-0.027,-0.102,-0.1615,-0.1145,0.009,-0.04,0.031,0.0035,0.1055,-0.0405,0.1105
-0.102,-0.157,-0.055,0.129,-0.023,-0.106,-0.1615,-0.116,0.0085,-0.0415,0.0295,0.002,0.108,-0.043,0.113
-0.1035,-0.154,-0.0505,0.1285,-0.026,-0.1025,-0.161,-0.118,0.0085,-0.041,0.0305,0.0035,0.1095,-0.0375,0.1115
-0.1055,-0.157,-0.0515,0.131,-0.0265,-0.104,-0.163,-0.1165,0.006,-0.04,0.0315,0.005,0.1095,-0.037,0.111
-0.1065,-0.165,-0.058,0.1355,-0.024,-0.1115,-0.162,-0.115,0.0075,-0.0415,0.0285,0.0025,0.1055,-0.04,0.113
-0.1095,-0.174,-0.0645,0.1415,-0.022,-0.1195,-0.156,-0.113,0.0105,-0.0405,0.0305,0.001,0.1025,-0.048,0.1135
-0.111,-0.175,-0.064,0.143,-0.023,-0.12,-0.1555,-0.1125,0.012,-0.039,0.0335,0.002,0.1015,-0.0515,0.114
-0.108,-0.172,-0.064,0.14,-0.022,-0.118,-0.157,-0.1145,0.0105,-0.0405,0.0325,0.0025,0.102,-0.055,0.1145
-0.105,-0.1715,-0.0665,0.138,-0.019,-0.119,-0.158,-0.1175,0.0065,-0.0425,0.0305,0.002,0.101,-0.059,0.1155
-0.1075,-0.171,-0.0635,0.139,-0.022,-0.1175,-0.158,-0.119,0.004,-0.041,0.032,0.0035,0.1015,-0.061,0.1155
-0.1075,-0.1705,-0.063,0.139,-0.022,-0.1165,-0.157,-0.1205,0.0035,-0.0435,0.032,0.004,0.1,-0.069,0.1155
-0.1115,-0.169,-0.0575,0.14,-0.0265,-0.1135,-0.1565,-0.1205,0.0045,-0.043,0.0325,0.003,0.097,-0.0665,0.1165
-0.118,-0.1655,-0.0475,0.1415,-0.035,-0.1065,-0.155,-0.125,0.003,-0.04,0.0325,0.0045,0.098,-0.0515,0.1135
-0.1165,-0.164,-0.048,0.14,-0.034,-0.106,-0.1555,-0.124,0.0045,-0.044,0.0315,0.0035,0.0975,-0.0445,0.115
-0.121,-0.161,-0.04,0.1405,-0.0405,-0.1005,-0.1575,-0.1245,0.0015,-0.047,0.0305,0.0045,0.0965,-0.0385,0.1135
-0.129,-0.163,-0.0345,0.146,-0.047,-0.099,-0.1595,-0.132,-0.0035,-0.05,0.027,0.0015,0.0955,-0.033,0.111
-0.137,-0.1675,-0.0305,0.152,-0.053,-0.099,-0.1615,-0.1295,-0.0045,-0.0515,0.0265,-0.0015,0.0935,-0.0335,0.111
-0.139,-0.1725,-0.034,0.1555,-0.0525,-0.103,-0.16,-0.1305,-0.008,-0.0545,0.0225,-0.004,0.0915,-0.037,0.1115
-0.1385,-0.18,-0.0415,0.159,-0.0485,-0.1105,-0.159,-0.134,-0.011,-0.059,0.0175,-0.0085,0.089,-0.0395,0.1115
-0.138,-0.178,-0.04,0.158,-0.049,-0.109,-0.158,-0.134,-0.012,-0.0595,0.017,-0.0095,0.0875,-0.0345,0.11
-0.1315,-0.172,-0.0405,0.1515,-0.045,-0.1065,-0.1545,-0.1315,-0.0105,-0.0585,0.0175,-0.008,0.086,-0.03,0.1105
-0.142,-0.175,-0.033,0.158,-0.0545,-0.104,-0.154,-0.1335,-0.0135,-0.06,0.0145,-0.0125,0.0825,-0.0265,0.108
-0.1525,-0.1825,-0.03,0.167,-0.061,-0.106,-0.1545,-0.1375,-0.018,-0.0615,0.012,-0.0155,0.081,-0.0265,0.1065
-0.158,-0.187,-0.029,0.172,-0.0645,-0.108,-0.1495,-0.1355,-0.0155,-0.06,0.013,-0.0145,0.08,-0.03,0.1035
-0.161,-0.196,-0.035,0.178,-0.0625,-0.1155,-0.1445,-0.1325,-0.012,-0.06,0.012,-0.015,0.078,-0.038,0.105
-0.1615,-0.204,-0.0425,0.1825,-0.0595,-0.123,-0.14,-0.1275,-0.01,-0.0595,0.0095,-0.015,0.077,-0.0485,0.1085
-0.165,-0.203,-0.038,0.184,-0.063,-0.1205,-0.138,-0.1275,-0.012,-0.0605,0.0095,-0.017,0.0735,-0.051,0.1065
-0.166,-0.201,-0.0355,0.183,-0.065,-0.1185,-0.1365,-0.128,-0.012,-0.0605,0.01,-0.019,0.0715,-0.0535,0.106
-0.166,-0.199,-0.0325,0.1825,-0.0665,-0.1155,-0.136,-0.1285,-0.01,-0.059,0.008,-0.0175,0.073,-0.0555,0.107
-0.168,-0.199,-0.031,0.183,-0.0685,-0.115,-0.1355,-0.129,-0.0095,-0.0595,0.01,-0.016,0.071,-0.056,0.104
-0.175,-0.201,-0.026,0.1875,-0.074,-0.1135,-0.1325,-0.127,-0.008,-0.058,0.0125,-0.0145,0.07,-0.059,0.1015
-0.179,-0.2025,-0.0235,0.1905,-0.0775,-0.113,-0.1325,-0.129,-0.0095,-0.058,0.01,-0.017,0.069,-0.0575,0.103
-0.1805,-0.207,-0.0265,0.194,-0.077,-0.117,-0.132,-0.13,-0.0105,-0.0585,0.0085,-0.019,0.067,-0.0605,0.1025
-0.1805,-0.2065,-0.0265,0.1935,-0.077,-0.1165,-0.133,-0.132,-0.0125,-0.062,0.007,-0.0195,0.0685,-0.062,0.1045
-0.1815,-0.199,-0.018,0.19,-0.0815,-0.1085,-0.137,-0.136,-0.016,-0.065,0.002,-0.023,0.068,-0.0485,0.1035
-0.183,-0.199,-0.016,0.191,-0.0835,-0.1075,-0.1395,-0.1395,-0.0185,-0.066,0.0015,-0.025,0.0675,-0.046,0.1035
-0.183,-0.2015,-0.0185,0.192,-0.082,-0.1095,-0.1415,-0.143,-0.0225,-0.07,-0.001,-0.0265,0.067,-0.0485,0.1025
-0.185,-0.2055,-0.0205,0.195,-0.082,-0.113,-0.143,-0.146,-0.026,-0.0715,-0.004,-0.0285,0.0665,-0.047,0.104
-0.1845,-0.2125,-0.028,0.198,-0.078,-0.12,-0.144,-0.1455,-0.0265,-0.0735,-0.004,-0.029,0.067,-0.0495,0.1085
-0.181,-0.2095,-0.029,0.195,-0.0755,-0.1195,-0.1475,-0.1495,-0.032,-0.0765,-0.009,-0.0315,0.0655,-0.0445,0.1075
-0.1805,-0.2105,-0.03,0.1955,-0.075,-0.1205,-0.1485,-0.1505,-0.0335,-0.079,-0.01,-0.034,0.066,-0.042,0.1095
-0.1815,-0.212,-0.0305,0.1965,-0.0755,-0.121,-0.148,-0.149,-0.0325,-0.0785,-0.01,-0.0335,0.0665,-0.0425,0.1085
-0.18,-0.209,-0.0295,0.1945,-0.075,-0.1195,-0.149,-0.151,-0.033,-0.0775,-0.009,-0.033,0.0675,-0.0385,0.1075
-0.1795,-0.209,-0.0295,0.194,-0.0745,-0.1195,-0.148,-0.1515,-0.034,-0.078,-0.008,-0.0315,0.0675,-0.0395,0.1095
-0.1755,-0.213,-0.0375,0.194,-0.069,-0.1255,-0.145,-0.149,-0.0325,-0.078,-0.0105,-0.0315,0.0655,-0.0465,0.11
-0.174,-0.2195,-0.0455,0.1965,-0.064,-0.1325,-0.1435,-0.144,-0.0285,-0.078,-0.0095,-0.0315,0.0655,-0.0565,0.112
-0.172,-0.2175,-0.0455,0.1945,-0.0635,-0.1315,-0.1415,-0.1435,-0.0275,-0.077,-0.006,-0.03,0.066,-0.0605,0.111
-0.172,-0.2145,-0.0425,0.193,-0.0645,-0.1285,-0.139,-0.1405,-0.0255,-0.0745,-0.004,-0.0285,0.0665,-0.06,0.1105
-0.1765,-0.212,-0.0355,0.194,-0.0705,-0.124,-0.1365,-0.139,-0.0235,-0.072,-0.0035,-0.025,0.0665,-0.063,0.109
-0.1775,-0.208,-0.0305,0.193,-0.073,-0.1195,-0.1345,-0.1395,-0.0245,-0.071,0.0,-0.0225,0.066,-0.065,0.107
-0.1805,-0.2095,-0.029,0.195,-0.0755,-0.1195,-0.135,-0.1375,-0.0235,-0.0695,0.003,-0.023,0.0645,-0.07,0.106
-0.1815,-0.2095,-0.028,0.1955,-0.0765,-0.119,-0.137,-0.139,-0.023,-0.07,0.002,-0.024,0.0645,-0.0685,0.107
-0.181,-0.209,-0.0285,0.195,-0.076,-0.119,-0.1365,-0.14,-0.025,-0.0705,0.001,-0.0245,0.066,-0.0705,0.1075
-0.1805,-0.2095,-0.029,0.195,-0.0755,-0.119,-0.137,-0.141,-0.0245,-0.071,-0.001,-0.0235,0.067,-0.0715,0.108
-0.1805,-0.2015,-0.021,0.1905,-0.0795,-0.1115,-0.1415,-0.1435,-0.0245,-0.073,-0.001,-0.0235,0.067,-0.0615,0.106
-0.1815,-0.2,-0.019,0.1905,-0.081,-0.1095,-0.143,-0.1435,-0.0295,-0.075,-0.001,-0.026,0.064,-0.0605,0.1045
-0.181,-0.2,-0.019,0.19,-0.0805,-0.1095,-0.1435,-0.146,-0.0315,-0.077,-0.003,-0.027,0.0635,-0.06,0.106
-0.181,-0.199,-0.018,0.19,-0.081,-0.1085,-0.144,-0.1505,-0.0295,-0.0755,-0.0025,-0.025,0.065,-0.055,0.105
-0.1825,-0.2055,-0.023,0.1935,-0.0795,-0.114,-0.143,-0.1485,-0.0275,-0.0765,-0.0025,-0.0255,0.065,-0.0515,0.107
-0.179,-0.2015,-0.023,0.19,-0.078,-0.1125,-0.143,-0.1465,-0.027,-0.0755,-0.0045,-0.026,0.0645,-0.048,0.1065
-0.1765,-0.2005,-0.024,0.188,-0.076,-0.112,-0.1425,-0.1475,-0.0265,-0.076,-0.0055,-0.0255,0.0625,-0.0465,0.107
-0.1785,-0.2035,-0.025,0.1905,-0.0765,-0.1145,-0.141,-0.146,-0.026,-0.0735,-0.003,-0.026,0.0635,-0.0475,0.1055
-0.1835,-0.205,-0.0215,0.194,-0.081,-0.1135,-0.1435,-0.147,-0.026,-0.075,-0.0035,-0.0265,0.0635,-0.048,0.104
-0.184,-0.2055,-0.022,0.1945,-0.081,-0.114,-0.143,-0.1485,-0.027,-0.077,-0.0045,-0.029,0.061,-0.0475,0.1045
-0.1785,-0.209,-0.0305,0.1935,-0.0735,-0.12,-0.139,-0.146,-0.026,-0.0755,-0.0045,-0.027,0.0615,-0.05,0.1055
-0.1755,-0.212,-0.036,0.1935,-0.0695,-0.124,-0.137,-0.142,-0.0235,-0.0745,-0.003,-0.0245,0.064,-0.058,0.1095
-0.1735,-0.2095,-0.036,0.1915,-0.0685,-0.1225,-0.135,-0.14,-0.022,-0.0715,0.001,-0.0225,0.0665,-0.061,0.1085
-0.1735,-0.2095,-0.036,0.1915,-0.0685,-0.1225,-0.1325,-0.1385,-0.0205,-0.07,0.001,-0.0215,0.065,-0.06,0.1065
-0.1735,-0.21,-0.0365,0.1915,-0.0685,-0.123,-0.1325,-0.1385,-0.022,-0.071,0.001,-0.0225,0.065,-0.0645,0.106
-0.1765,-0.209,-0.0325,0.1925,-0.0715,-0.121,-0.1325,-0.139,-0.0225,-0.07,0.003,-0.0205,0.066,-0.069,0.104
-0.1785,-0.2085,-0.03,0.1935,-0.074,-0.1195,-0.1315,-0.138,-0.02,-0.0675,0.0045,-0.019,0.066,-0.072,0.104
-0.1785,-0.2095,-0.031,0.194,-0.0735,-0.1205,-0.1315,-0.1385,-0.02,-0.0675,0.0035,-0.019,0.0655,-0.0765,0.1045
-0.1795,-0.21,-0.0305,0.1945,-0.074,-0.1205,-0.1305,-0.138,-0.022,-0.0675,0.003,-0.0185,0.066,-0.083,0.1045
-0.175,-0.207,-0.032,0.1905,-0.0715,-0.1195,-0.132,-0.138,-0.0235,-0.07,0.002,-0.02,0.0675,-0.075,0.1035
-0.1745,-0.199,-0.0245,0.1865,-0.0745,-0.112,-0.135,-0.1425,-0.027,-0.072,0.0015,-0.022,0.067,-0.062,0.102
-0.179,-0.1975,-0.018,0.188,-0.08,-0.1075,-0.1375,-0.146,-0.0275,-0.0735,0.0015,-0.023,0.065,-0.0615,0.1015
-0.1795,-0.1995,-0.02,0.1895,-0.0795,-0.11,-0.14,-0.145,-0.027,-0.0745,0.0,-0.0235,0.0645,-0.059,0.1015
-0.1805,-0.1995,-0.019,0.1895,-0.0805,-0.1095,-0.1405,-0.147,-0.0295,-0.0735,-0.0005,-0.0235,0.064,-0.055,0.1015
-0.181,-0.2025,-0.0215,0.1915,-0.0795,-0.112,-0.14,-0.1475,-0.028,-0.074,-0.0025,-0.0245,0.0635,-0.055,0.105
-0.1795,-0.205,-0.0255,0.192,-0.0765,-0.1155,-0.139,-0.1465,-0.0305,-0.076,-0.004,-0.026,0.0635,-0.049,0.1065
-0.177,-0.205,-0.028,0.1905,-0.074,-0.1165,-0.14,-0.147,-0.031,-0.0755,-0.004,-0.026,0.062,-0.0455,0.106
-0.171,-0.202,-0.031,0.1865,-0.07,-0.1165,-0.139,-0.146,-0.028,-0.0735,-0.0015,-0.0255,0.063,-0.0435,0.105
-0.179,-0.2055,-0.0265,0.192,-0.076,-0.116,-0.1395,-0.1485,-0.03,-0.076,-0.0035,-0.026,0.063,-0.046,0.104
-0.1885,-0.2135,-0.025,0.201,-0.0815,-0.1195,-0.142,-0.15,-0.0325,-0.078,-0.006,-0.028,0.06,-0.0495,0.1045
-0.1815,-0.2165,-0.035,0.199,-0.0725,-0.126,-0.139,-0.148,-0.0305,-0.0755,-0.005,-0.027,0.061,-0.0505,0.106
-0.179,-0.2195,-0.0405,0.199,-0.0685,-0.13,-0.1355,-0.1435,-0.027,-0.074,-0.005,-0.0275,0.0615,-0.0565,0.108
-0.1805,-0.2205,-0.04,0.2,-0.07,-0.13,-0.1335,-0.1415,-0.0245,-0.0745,-0.004,-0.0285,0.061,-0.063,0.107
-0.181,-0.22,-0.039,0.2,-0.0705,-0.1295,-0.133,-0.1435,-0.0235,-0.0735,-0.003,-0.0285,0.061,-0.064,0.106
-0.1815,-0.218,-0.0365,0.1995,-0.072,-0.1275,-0.132,-0.1405,-0.0235,-0.0715,0.0,-0.029,0.06,-0.0645,0.104
-0.179,-0.214,-0.035,0.1965,-0.072,-0.1245,-0.1305,-0.139,-0.0235,-0.07,0.002,-0.0245,0.0605,-0.069,0.1035
-0.176,-0.2105,-0.0345,0.193,-0.0705,-0.123,-0.131,-0.1395,-0.023,-0.069,0.001,-0.022,0.0625,-0.067,0.103
-0.1795,-0.211,-0.0315,0.195,-0.074,-0.121,-0.1315,-0.1405,-0.023,-0.0705,0.0005,-0.0215,0.0635,-0.0675,0.103
-0.1785,-0.21,-0.0315,0.194,-0.073,-0.121,-0.1315,-0.1405,-0.021,-0.069,0.001,-0.021,0.0645,-0.0665,0.1045
-0.1715,-0.2075,-0.036,0.189,-0.0675,-0.1215,-0.132,-0.1385,-0.0195,-0.068,0.0035,-0.0225,0.0655,-0.0605,0.103
-0.174,-0.201,-0.027,0.1875,-0.0735,-0.114,-0.135,-0.1435,-0.024,-0.071,0.002,-0.022,0.065,-0.057,0.103
-0.173,-0.1935,-0.02,0.1835,-0.0765,-0.1065,-0.138,-0.146,-0.027,-0.0715,0.0015,-0.022,0.0655,-0.0485,0.102
-0.1725,-0.193,-0.02,0.1825,-0.076,-0.1065,-0.138,-0.1465,-0.028,-0.0725,0.001,-0.024,0.064,-0.043,0.1025
-0.1765,-0.197,-0.02,0.1865,-0.078,-0.1085,-0.136,-0.146,-0.028,-0.0725,-0.0005,-0.025,0.0615,-0.0475,0.101
-0.1765,-0.2005,-0.0235,0.1885,-0.0765,-0.112,-0.1365,-0.147,-0.028,-0.0745,-0.0015,-0.026,0.061,-0.048,0.1005
-0.1745,-0.202,-0.027,0.188,-0.0735,-0.1145,-0.1385,-0.15,-0.0315,-0.077,-0.0045,-0.0295,0.0605,-0.0455,0.104
-0.174,-0.2005,-0.0265,0.187,-0.0735,-0.1135,-0.139,-0.1495,-0.0315,-0.076,-0.003,-0.0295,0.061,-0.0445,0.1045
-0.172,-0.199,-0.0265,0.185,-0.0725,-0.113,-0.1375,-0.149,-0.031,-0.0765,-0.002,-0.0265,0.064,-0.037,0.1045
-0.17,-0.199,-0.029,0.184,-0.07,-0.114,-0.137,-0.148,-0.0295,-0.074,-0.003,-0.026,0.065,-0.03,0.103
-0.1675,-0.196,-0.028,0.1815,-0.0695,-0.112,-0.138,-0.147,-0.028,-0.074,-0.002,-0.0265,0.0635,-0.0245,0.103
-0.1675,-0.2025,-0.035,0.185,-0.066,-0.119,-0.134,-0.144,-0.0255,-0.073,-0.001,-0.026,0.0625,-0.0335,0.105
-0.1735,-0.212,-0.0385,0.1925,-0.0675,-0.1255,-0.128,-0.139,-0.0205,-0.069,0.0015,-0.025,0.062,-0.0485,0.1045
-0.1785,-0.2125,-0.0345,0.1955,-0.072,-0.1235,-0.126,-0.136,-0.0195,-0.067,0.0025,-0.023,0.062,-0.0535,0.104
-0.184,-0.2135,-0.0295,0.198,-0.077,-0.1215,-0.126,-0.1375,-0.0205,-0.068,0.002,-0.0225,0.0625,-0.059,0.103
-0.184,-0.211,-0.0275,0.1975,-0.078,-0.1195,-0.125,-0.1385,-0.02,-0.069,0.002,-0.022,0.0645,-0.058,0.102
-0.1785,-0.2085,-0.0305,0.1935,-0.0735,-0.1195,-0.127,-0.137,-0.0185,-0.0675,0.004,-0.0195,0.065,-0.056,0.1
-0.177,-0.204,-0.027,0.1905,-0.0745,-0.116,-0.1275,-0.139,-0.0185,-0.0635,0.0055,-0.0175,0.0635,-0.0535,0.099
-0.18,-0.202,-0.0225,0.191,-0.0785,-0.112,-0.1255,-0.1365,-0.018,-0.063,0.0045,-0.018,0.061,-0.0565,0.0995
-0.1805,-0.2045,-0.024,0.1925,-0.078,-0.114,-0.125,-0.135,-0.0175,-0.0685,0.005,-0.0195,0.061,-0.0635,0.1
-0.177,-0.202,-0.025,0.1895,-0.076,-0.1135,-0.1285,-0.139,-0.021,-0.0695,0.004,-0.0205,0.064,-0.0595,0.0995
-0.178,-0.1965,-0.0185,0.187,-0.0795,-0.1075,-0.131,-0.14,-0.0215,-0.0685,0.005,-0.0195,0.064,-0.0505,0.0975
-0.1805,-0.1965,-0.016,0.1885,-0.082,-0.106,-0.131,-0.1425,-0.0215,-0.068,0.0055,-0.019,0.0625,-0.0475,0.0975
-0.181,-0.196,-0.015,0.188,-0.0825,-0.1055,-0.133,-0.1435,-0.0235,-0.07,0.0025,-0.0225,0.062,-0.0475,0.0985
-0.179,-0.193,-0.0135,0.186,-0.0825,-0.103,-0.1355,-0.1445,-0.0235,-0.071,0.001,-0.0225,0.064,-0.0415,0.099
-0.176,-0.197,-0.0205,0.186,-0.0775,-0.1085,-0.135,-0.146,-0.025,-0.0715,0.001,-0.023,0.064,-0.035,0.0995
-0.1755,-0.2,-0.024,0.1875,-0.0755,-0.112,-0.135,-0.1435,-0.024,-0.072,-0.0005,-0.0265,0.0625,-0.033,0.1005
-0.1775,-0.1995,-0.022,0.1885,-0.0775,-0.111,-0.1345,-0.1445,-0.0235,-0.0715,-0.0015,-0.026,0.0635,-0.034,0.1015
-0.177,-0.197,-0.02,0.187,-0.0785,-0.1085,-0.1325,-0.145,-0.024,-0.072,0.0,-0.026,0.062,-0.0305,0.1005
-0.177,-0.1945,-0.0175,0.1855,-0.0795,-0.106,-0.135,-0.1455,-0.0265,-0.0705,-0.001,-0.0275,0.0625,-0.029,0.099
-0.1785,-0.1965,-0.0175,0.1875,-0.0805,-0.107,-0.1355,-0.146,-0.028,-0.0695,-0.001,-0.0265,0.0635,-0.0335,0.099
-0.176,-0.2015,-0.0255,0.1885,-0.075,-0.1135,-0.131,-0.142,-0.025,-0.0685,-0.0005,-0.0265,0.062,-0.0385,0.102
-0.174,-0.2065,-0.0325,0.19,-0.0705,-0.1195,-0.1295,-0.1405,-0.0225,-0.0685,-0.001,-0.0275,0.0625,-0.0475,0.104
-0.1735,-0.207,-0.033,0.19,-0.07,-0.12,-0.1295,-0.141,-0.022,-0.0675,0.0005,-0.027,0.0635,-0.0515,0.1025
-0.1725,-0.2045,-0.0315,0.1885,-0.0705,-0.118,-0.128,-0.1395,-0.0205,-0.067,0.0,-0.0275,0.062,-0.052,0.102
-0.166,-0.1975,-0.0315,0.1815,-0.067,-0.1145,-0.1255,-0.135,-0.017,-0.063,0.003,-0.0235,0.063,-0.0515,0.102
-0.157,-0.1875,-0.0305,0.172,-0.063,-0.109,-0.1235,-0.133,-0.0145,-0.0595,0.008,-0.017,0.0655,-0.0505,0.0995
-0.1655,-0.1935,-0.0275,0.179,-0.0685,-0.1105,-0.1245,-0.135,-0.016,-0.063,0.007,-0.019,0.064,-0.0555,0.0985
-0.1735,-0.1995,-0.0255,0.186,-0.0735,-0.1125,-0.1275,-0.1385,-0.019,-0.066,0.005,-0.021,0.0645,-0.0575,0.0975
-0.174,-0.1995,-0.0255,0.1865,-0.074,-0.1125,-0.128,-0.139,-0.0195,-0.065,0.0055,-0.021,0.0655,-0.0565,0.0975
-0.1735,-0.201,-0.0275,0.187,-0.073,-0.1145,-0.127,-0.137,-0.0175,-0.0655,0.003,-0.021,0.066,-0.0545,0.0985
-0.173,-0.195,-0.0215,0.184,-0.0755,-0.108,-0.1305,-0.1405,-0.019,-0.067,0.0005,-0.0215,0.0655,-0.0515,0.098
-0.1755,-0.192,-0.0165,0.1835,-0.0795,-0.104,-0.1305,-0.142,-0.0195,-0.066,0.003,-0.022,0.0635,-0.049,0.0965
-0.1775,-0.192,-0.0145,0.1845,-0.0815,-0.103,-0.131,-0.1415,-0.0195,-0.0675,0.003,-0.0215,0.0635,-0.043,0.0965
-0.1775,-0.192,-0.0145,0.1845,-0.081,-0.103,-0.134,-0.145,-0.0225,-0.069,0.002,-0.0235,0.0625,-0.043,0.0975
-0.174,-0.192,-0.018,0.183,-0.078,-0.105,-0.1335,-0.145,-0.023,-0.0685,0.0015,-0.023,0.0655,-0.041,0.0985
-0.1735,-0.194,-0.0205,0.1835,-0.0765,-0.107,-0.1325,-0.1425,-0.0215,-0.0685,-0.0005,-0.023,0.066,-0.0405,0.1
-0.1715,-0.195,-0.023,0.183,-0.074,-0.109,-0.1335,-0.1425,-0.0215,-0.069,-0.0005,-0.024,0.064,-0.0395,0.101
-0.17,-0.19,-0.0205,0.1795,-0.0745,-0.105,-0.136,-0.1445,-0.0225,-0.069,0.0,-0.0225,0.065,-0.0275,0.1
-0.1705,-0.189,-0.018,0.1795,-0.076,-0.1035,-0.134,-0.1445,-0.0225,-0.069,0.0,-0.022,0.065,-0.025,0.0995
-0.1735,-0.1915,-0.018,0.182,-0.0775,-0.105,-0.132,-0.1425,-0.023,-0.068,0.0005,-0.021,0.0655,-0.032,0.0985
-0.175,-0.1985,-0.023,0.1865,-0.0755,-0.1105,-0.1295,-0.139,-0.02,-0.067,0.0015,-0.0225,0.0645,-0.039,0.1005
-0.174,-0.205,-0.031,0.189,-0.071,-0.118,-0.127,-0.137,-0.016,-0.0675,0.0015,-0.022,0.063,-0.048,0.1025
-0.1725,-0.2045,-0.032,0.188,-0.07,-0.1185,-0.126,-0.136,-0.017,-0.0655,0.0015,-0.0225,0.063,-0.051,0.1015
-0.1735,-0.2,-0.0265,0.1865,-0.0735,-0.113,-0.1255,-0.1345,-0.0155,-0.064,0.0025,-0.022,0.063,-0.049,0.101
-0.1705,-0.196,-0.025,0.183,-0.0725,-0.1105,-0.1235,-0.1335,-0.0135,-0.063,0.004,-0.0195,0.064,-0.055,0.099
-0.1665,-0.1905,-0.024,0.1785,-0.071,-0.1075,-0.1235,-0.1355,-0.0135,-0.062,0.006,-0.0195,0.0635,-0.055,0.0975
-0.167,-0.1875,-0.02,0.177,-0.0735,-0.104,-0.125,-0.1335,-0.0135,-0.0615,0.006,-0.0175,0.064,-0.0545,0.098
-0.166,-0.185,-0.0195,0.1755,-0.073,-0.1025,-0.1245,-0.134,-0.013,-0.0625,0.0065,-0.018,0.0635,-0.054,0.0975
-0.164,-0.182,-0.018,0.1725,-0.0725,-0.1,-0.1235,-0.134,-0.013,-0.062,0.0065,-0.02,0.0625,-0.048,0.097
-0.1645,-0.1825,-0.018,0.173,-0.073,-0.1,-0.124,-0.132,-0.0125,-0.06,0.008,-0.0195,0.0635,-0.0485,0.0965
-0.162,-0.173,-0.0115,0.167,-0.075,-0.092,-0.1275,-0.1355,-0.014,-0.0605,0.0095,-0.0175,0.0635,-0.041,0.094
-0.163,-0.1695,-0.0065,0.166,-0.078,-0.088,-0.1285,-0.137,-0.0165,-0.063,0.0085,-0.0165,0.0635,-0.0355,0.094
-0.172,-0.1765,-0.0045,0.174,-0.0835,-0.0905,-0.131,-0.141,-0.0195,-0.065,0.004,-0.0205,0.063,-0.0335,0.095
-0.174,-0.18,-0.006,0.177,-0.084,-0.093,-0.1315,-0.142,-0.0195,-0.066,0.002,-0.023,0.061,-0.0305,0.0945
-0.175,-0.1835,-0.008,0.179,-0.0835,-0.096,-0.131,-0.141,-0.017,-0.0655,0.002,-0.022,0.0615,-0.0355,0.096
-0.1775,-0.185,-0.0075,0.181,-0.0845,-0.0965,-0.133,-0.14,-0.0195,-0.067,0.0005,-0.0245,0.062,-0.0315,0.098
-0.1765,-0.188,-0.0115,0.182,-0.082,-0.0995,-0.1315,-0.14,-0.0205,-0.068,0.001,-0.0245,0.062,-0.0265,0.0985
-0.1745,-0.1865,-0.0125,0.1805,-0.081,-0.0995,-0.133,-0.141,-0.02,-0.067,0.002,-0.0245,0.064,-0.0215,0.0975
-0.173,-0.183,-0.01,0.178,-0.0815,-0.0965,-0.1325,-0.1415,-0.02,-0.0665,0.0,-0.025,0.064,-0.0175,0.0965
-0.1755,-0.182,-0.0065,0.1785,-0.0845,-0.0945,-0.1305,-0.141,-0.019,-0.0645,0.0015,-0.023,0.0635,-0.025,0.096
-0.173,-0.1875,-0.014,0.18,-0.0795,-0.101,-0.13,-0.1375,-0.0165,-0.0625,0.002,-0.022,0.0645,-0.031,0.098
-0.1695,-0.193,-0.023,0.181,-0.073,-0.108,-0.129,-0.1345,-0.0145,-0.0625,0.0025,-0.0225,0.064,-0.036,0.0995
-0.1665,-0.192,-0.025,0.179,-0.0705,-0.1085,-0.1265,-0.1315,-0.0115,-0.0605,0.0075,-0.022,0.064,-0.0375,0.0975
-0.1635,-0.186,-0.0225,0.1745,-0.07,-0.104,-0.1235,-0.1305,-0.0105,-0.0585,0.007,-0.0205,0.066,-0.036,0.0975
-0.1645,-0.1805,-0.016,0.172,-0.074,-0.098,-0.1235,-0.129,-0.0105,-0.057,0.0075,-0.019,0.0665,-0.0385,0.096
-0.165,-0.1815,-0.017,0.173,-0.0735,-0.0995,-0.1235,-0.129,-0.0095,-0.056,0.0095,-0.0165,0.067,-0.0435,0.0945
-0.1685,-0.1855,-0.017,0.1765,-0.0755,-0.101,-0.124,-0.1295,-0.01,-0.0565,0.0115,-0.016,0.067,-0.047,0.092
-0.1705,-0.186,-0.016,0.178,-0.077,-0.101,-0.124,-0.129,-0.0095,-0.0575,0.0105,-0.017,0.066,-0.0495,0.0935
-0.1675,-0.1855,-0.018,0.1765,-0.0745,-0.1015,-0.1235,-0.129,-0.0095,-0.056,0.009,-0.016,0.067,-0.0485,0.0935
-0.165,-0.1835,-0.0185,0.1745,-0.073,-0.101,-0.1225,-0.1285,-0.008,-0.056,0.0125,-0.0155,0.068,-0.0455,0.0935
-0.1625,-0.175,-0.0125,0.1685,-0.0745,-0.094,-0.124,-0.131,-0.0095,-0.056,0.0115,-0.015,0.067,-0.0395,0.093
-0.158,-0.1705,-0.0125,0.164,-0.0725,-0.0915,-0.1265,-0.1325,-0.012,-0.056,0.012,-0.015,0.067,-0.031,0.091
-0.1595,-0.1725,-0.013,0.166,-0.073,-0.093,-0.1285,-0.1345,-0.0125,-0.0585,0.01,-0.017,0.066,-0.029,0.092
-0.1635,-0.1735,-0.0105,0.168,-0.076,-0.092,-0.13,-0.136,-0.014,-0.062,0.007,-0.0195,0.065,-0.0265,0.0915
-0.1645,-0.1755,-0.0115,0.1695,-0.0765,-0.0935,-0.1295,-0.1375,-0.016,-0.0645,0.005,-0.0215,0.065,-0.0205,0.0925
-0.1645,-0.1785,-0.014,0.171,-0.075,-0.0965,-0.1295,-0.138,-0.018,-0.0665,0.001,-0.025,0.0635,-0.017,0.0945
-0.1645,-0.1845,-0.0205,0.174,-0.0715,-0.1025,-0.1285,-0.138,-0.0215,-0.0715,-0.004,-0.03,0.06,-0.0215,0.0965
-0.1635,-0.1855,-0.022,0.174,-0.07,-0.104,-0.1245,-0.1365,-0.0225,-0.073,-0.0035,-0.028,0.06,-0.0225,0.0955
-0.16,-0.1865,-0.0265,0.173,-0.0665,-0.1065,-0.12,-0.133,-0.025,-0.0755,-0.005,-0.0275,0.0595,-0.0255,0.094
-0.169,-0.198,-0.029,0.1835,-0.07,-0.1135,-0.1085,-0.1285,-0.0305,-0.0825,-0.015,-0.037,0.053,-0.0435,0.0955
-0.1775,-0.2175,-0.0405,0.197,-0.068,-0.129,-0.0925,-0.1195,-0.029,-0.088,-0.023,-0.045,0.0475,-0.0665,0.0965
-0.19,-0.239,-0.049,0.2145,-0.07,-0.144,-0.076,-0.1135,-0.0315,-0.0975,-0.0345,-0.0545,0.038,-0.0895,0.098
-0.2035,-0.2495,-0.0455,0.2265,-0.079,-0.1475,-0.0595,-0.1085,-0.0335,-0.104,-0.0425,-0.062,0.028,-0.096,0.0965
-0.209,-0.2565,-0.047,0.2325,-0.081,-0.152,-0.044,-0.101,-0.0325,-0.11,-0.0515,-0.07,0.02,-0.1065,0.0915
-0.216,-0.2685,-0.0515,0.242,-0.0825,-0.16,-0.0255,-0.0955,-0.038,-0.1235,-0.066,-0.0815,0.0105,-0.1235,0.088
-0.222,-0.279,-0.0565,0.2505,-0.083,-0.168,-0.0015,-0.0865,-0.041,-0.1345,-0.079,-0.0915,-0.0005,-0.138,0.083
-0.2295,-0.291,-0.061,0.26,-0.0845,-0.1755,0.021,-0.0765,-0.0395,-0.1405,-0.0905,-0.102,-0.011,-0.156,0.0765
-0.2405,-0.304,-0.063,0.2725,-0.089,-0.1835,0.043,-0.061,-0.0345,-0.1435,-0.0995,-0.1115,-0.019,-0.1745,0.0715
-0.2495,-0.317,-0.067,0.2835,-0.091,-0.192,0.0685,-0.041,-0.025,-0.146,-0.108,-0.1205,-0.027,-0.1915,0.0635
-0.253,-0.3285,-0.0745,0.291,-0.089,-0.2015,0.11,-0.0085,-0.007,-0.1445,-0.1175,-0.131,-0.0335,-0.202,0.0505
-0.26,-0.33,-0.0695,0.295,-0.0955,-0.1995,0.15,0.0235,0.008,-0.141,-0.124,-0.138,-0.039,-0.206,0.0365
-0.267,-0.335,-0.068,0.301,-0.0995,-0.2015,0.1685,0.028,0.0085,-0.1455,-0.1315,-0.145,-0.0435,-0.214,0.0285
-0.2725,-0.3445,-0.0715,0.3085,-0.1005,-0.208,0.205,0.0445,0.0165,-0.1455,-0.138,-0.152,-0.049,-0.2235,0.017
-0.274,-0.3375,-0.0635,0.3055,-0.1055,-0.2005,0.24,0.063,0.0375,-0.128,-0.1305,-0.1475,-0.048,-0.216,0.001
-0.272,-0.313,-0.0405,0.2925,-0.116,-0.1765,0.251,0.0715,0.0665,-0.098,-0.107,-0.132,-0.0385,-0.1845,-0.016
-0.2665,-0.286,-0.019,0.276,-0.1235,-0.1525,0.2625,0.0945,0.1075,-0.061,-0.081,-0.119,-0.028,-0.151,-0.0375
-0.2595,-0.271,-0.011,0.265,-0.124,-0.141,0.263,0.0985,0.132,-0.036,-0.0645,-0.108,-0.0195,-0.135,-0.051
-0.242,-0.244,-0.001,0.243,-0.1205,-0.1225,0.2505,0.094,0.147,-0.011,-0.0415,-0.089,-0.002,-0.106,-0.062
-0.2155,-0.206,0.01,0.2105,-0.1125,-0.098,0.2335,0.113,0.1835,0.036,-0.003,-0.062,0.0255,-0.07,-0.078
-0.1905,-0.1735,0.017,0.182,-0.1035,-0.0785,0.211,0.1445,0.228,0.091,0.039,-0.032,0.0575,-0.049,-0.0925
-0.1495,-0.13,0.0195,0.1395,-0.084,-0.055,0.173,0.1755,0.28,0.1535,0.092,0.008,0.098,-0.0215,-0.1055
-0.1045,-0.0735,0.031,0.089,-0.0675,-0.021,0.125,0.1995,0.338,0.2275,0.1545,0.0545,0.142,0.0265,-0.1205
-0.054,-0.0045,0.0495,0.029,-0.0515,0.0225,0.092,0.2515,0.4285,0.3285,0.2355,0.1135,0.1965,0.0865,-0.151
0.0105,0.0865,0.076,-0.049,-0.0325,0.0815,0.0505,0.317,0.544,0.458,0.3395,0.189,0.2695,0.1585,-0.1885
0.082,0.1795,0.0975,-0.131,-0.0075,0.1385,-0.0225,0.3485,0.6295,0.574,0.442,0.2665,0.347,0.2365,-0.2115
0.1575,0.261,0.1035,-0.209,0.0275,0.182,-0.0945,0.385,0.7125,0.686,0.5435,0.3435,0.4255,0.294,-0.228
0.2395,0.3425,0.1035,-0.2905,0.068,0.223,-0.19,0.4165,0.78,0.7885,0.64,0.418,0.5045,0.3435,-0.2335
0.321,0.4065,0.0855,-0.3635,0.118,0.246,-0.2915,0.4535,0.8435,0.8815,0.7275,0.484,0.5825,0.3755,-0.226
0.4095,0.48,0.0705,-0.4445,0.1695,0.2755,-0.3935,0.494,0.924,0.993,0.827,0.5595,0.6725,0.422,-0.2245
0.507,0.5675,0.061,-0.5375,0.2235,0.3145,-0.522,0.5095,0.9945,1.1095,0.939,0.644,0.771,0.488,-0.2215
0.591,0.653,0.0625,-0.622,0.2645,0.358,-0.6265,0.5365,1.078,1.23,1.049,0.7265,0.8625,0.5495,-0.223
0.678,0.7475,0.07,-0.7125,0.304,0.409,-0.7345,0.554,1.1605,1.352,1.1665,0.816,0.958,0.6245,-0.2255
0.7545,0.8055,0.0515,-0.78,0.3515,0.429,-0.845,0.5575,1.2155,1.446,1.253,0.881,1.0375,0.663,-0.211
0.8155,0.846,0.031,-0.8305,0.3925,0.4385,-0.9515,0.537,1.2385,1.5025,1.31,0.925,1.093,0.688,-0.1855
0.8745,0.8885,0.0145,-0.8815,0.43,0.4515,-1.0485,0.51,1.2615,1.5625,1.3725,0.9735,1.15,0.7245,-0.159
0.9125,0.9245,0.012,-0.9185,0.4505,0.4685,-1.1205,0.4775,1.283,1.619,1.426,1.015,1.1975,0.7615,-0.1355
0.9305,0.966,0.036,-0.9485,0.4475,0.5015,-1.209,0.402,1.2745,1.6515,1.472,1.054,1.229,0.814,-0.103
0.9305,1.005,0.0755,-0.968,0.4275,0.5405,-1.2895,0.312,1.261,1.6765,1.514,1.0915,1.253,0.8655,-0.0715
0.919,1.057,0.1385,-0.988,0.3905,0.598,-1.3685,0.2025,1.24,1.6995,1.5605,1.1365,1.276,0.9335,-0.0515
0.9205,1.1065,0.1865,-1.0135,0.367,0.646,-1.4655,0.0785,1.194,1.7025,1.597,1.174,1.298,0.9975,-0.023
0.9295,1.116,0.187,-1.0225,0.3715,0.651,-1.5405,-0.026,1.1225,1.6595,1.597,1.188,1.3055,1.009,0.024
0.917,1.1125,0.196,-1.0145,0.361,0.654,-1.577,-0.129,1.025,1.576,1.567,1.185,1.287,1.0165,0.0735
0.889,1.118,0.229,-1.0035,0.3305,0.673,-1.6075,-0.2655,0.894,1.4635,1.525,1.1755,1.255,1.04,0.118
0.854,1.127,0.273,-0.9905,0.2905,0.6995,-1.6335,-0.4055,0.76,1.3525,1.485,1.1665,1.2195,1.063,0.1535
0.811,1.0935,0.283,-0.952,0.264,0.688,-1.596,-0.493,0.635,1.228,1.416,1.128,1.1645,1.044,0.1875
0.7565,1.009,0.253,-0.8825,0.252,0.6305,-1.5325,-0.5525,0.4975,1.068,1.3065,1.059,1.087,0.9745,0.236
0.679,0.942,0.2635,-0.8105,0.208,0.6025,-1.476,-0.6185,0.373,0.918,1.2,0.991,0.999,0.937,0.2765
0.6,0.8765,0.2775,-0.738,0.1615,0.577,-1.4025,-0.6675,0.2615,0.7685,1.0905,0.9225,0.9095,0.9115,0.311
0.5245,0.7825,0.259,-0.6535,0.133,0.521,-1.324,-0.6925,0.159,0.6185,0.963,0.8345,0.814,0.8465,0.3455
0.431,0.659,0.2285,-0.545,0.1015,0.444,-1.229,-0.7,0.0715,0.4775,0.825,0.7285,0.7095,0.7505,0.372
0.3405,0.5475,0.2075,-0.444,0.0665,0.378,-1.1495,-0.723,-0.0345,0.3375,0.7015,0.634,0.6135,0.665,0.3965
0.268,0.4595,0.192,-0.3635,0.038,0.3255,-1.095,-0.7715,-0.165,0.1885,0.5865,0.55,0.525,0.5965,0.426
0.2055,0.386,0.18,-0.2955,0.013,0.283,-1.0405,-0.82,-0.3035,0.0285,0.47,0.4705,0.4395,0.5435,0.459
0.1615,0.333,0.1715,-0.247,-0.0045,0.2525,-0.9935,-0.871,-0.4395,-0.117,0.3775,0.4075,0.3675,0.4985,0.488
0.1275,0.271,0.1435,-0.199,-0.0075,0.207,-0.9605,-0.9105,-0.554,-0.2395,0.2955,0.3515,0.314,0.445,0.5135
0.0975,0.2205,0.123,-0.1585,-0.0125,0.1715,-0.942,-0.9175,-0.601,-0.2995,0.2395,0.3085,0.2775,0.411,0.522
0.0715,0.187,0.1155,-0.1295,-0.0215,0.1515,-0.918,-0.895,-0.601,-0.3205,0.2005,0.274,0.249,0.389,0.5225
0.049,0.1675,0.1185,-0.108,-0.0345,0.143,-0.8875,-0.8605,-0.5795,-0.325,0.173,0.249,0.2255,0.3755,0.5125
0.022,0.152,0.13,-0.087,-0.0535,0.141,-0.8485,-0.815,-0.542,-0.316,0.1485,0.223,0.1985,0.3655,0.493
-0.005,0.134,0.139,-0.0645,-0.072,0.1365,-0.8075,-0.77,-0.5115,-0.3145,0.116,0.1915,0.167,0.354,0.48
-0.024,0.1075,0.1315,-0.042,-0.0775,0.1195,-0.7665,-0.726,-0.479,-0.313,0.085,0.162,0.1415,0.327,0.4685
-0.0405,0.0765,0.117,-0.0185,-0.0785,0.0965,-0.7255,-0.6805,-0.4475,-0.3045,0.0635,0.1345,0.1225,0.294,0.455
-0.05,0.063,0.1135,-0.0065,-0.0815,0.088,-0.696,-0.6475,-0.4175,-0.289,0.0565,0.123,0.114,0.275,0.438
-0.069,0.0415,0.1105,0.0135,-0.0895,0.076,-0.6575,-0.613,-0.3915,-0.2815,0.0415,0.106,0.0995,0.251,0.4215
-0.0905,0.0145,0.105,0.038,-0.0975,0.0595,-0.605,-0.5695,-0.3635,-0.274,0.0215,0.0795,0.08,0.228,0.398
-0.109,-0.01,0.0995,0.0595,-0.104,0.045,-0.5525,-0.524,-0.3315,-0.264,0.005,0.059,0.0645,0.202,0.374
-0.1295,-0.0315,0.098,0.08,-0.1135,0.0335,-0.5005,-0.4825,-0.3025,-0.251,-0.0095,0.041,0.0505,0.1745,0.3505
-0.145,-0.048,0.0965,0.096,-0.1205,0.0245,-0.456,-0.448,-0.2775,-0.2385,-0.0225,0.0235,0.037,0.151,0.33
-0.153,-0.0665,0.0865,0.1095,-0.1195,0.01,-0.4225,-0.418,-0.257,-0.235,-0.031,0.01,0.0285,0.134,0.3175
-0.159,-0.0745,0.0845,0.1165,-0.1215,0.005,-0.396,-0.396,-0.239,-0.2275,-0.0345,0.0025,0.0245,0.129,0.302
-0.1695,-0.074,0.095,0.1215,-0.132,0.0105,-0.374,-0.378,-0.2235,-0.219,-0.038,-0.0035,0.0195,0.132,0.2855
-0.1735,-0.0745,0.0985,0.124,-0.136,0.012,-0.3555,-0.363,-0.212,-0.211,-0.0385,-0.0065,0.0185,0.135,0.2725
-0.1735,-0.081,0.093,0.127,-0.133,0.006,-0.342,-0.3515,-0.203,-0.2045,-0.039,-0.011,0.019,0.1325,0.264
-0.1745,-0.0885,0.086,0.1315,-0.13,-0.0015,-0.3265,-0.3375,-0.1905,-0.199,-0.037,-0.0115,0.0205,0.1255,0.2535
-0.177,-0.097,0.08,0.1365,-0.128,-0.0085,-0.31,-0.323,-0.1795,-0.191,-0.0365,-0.012,0.022,0.1165,0.2425
-0.177,-0.101,0.0765,0.1385,-0.126,-0.0125,-0.2975,-0.312,-0.171,-0.186,-0.037,-0.016,0.0225,0.1185,0.2345
-0.176,-0.106,0.07,0.141,-0.123,-0.018,-0.28,-0.292,-0.1555,-0.1755,-0.0355,-0.0185,0.026,0.1105,0.222
-0.179,-0.1195,0.0595,0.149,-0.119,-0.03,-0.253,-0.2655,-0.136,-0.1635,-0.0345,-0.0235,0.0265,0.0935,0.2065
-0.184,-0.1245,0.0595,0.154,-0.1215,-0.0325,-0.2325,-0.2475,-0.1195,-0.1505,-0.029,-0.023,0.0275,0.091,0.191
-0.188,-0.1305,0.0575,0.159,-0.1225,-0.037,-0.2115,-0.224,-0.1005,-0.1365,-0.0235,-0.0215,0.0315,0.0795,0.176
-0.185,-0.14,0.0445,0.162,-0.1145,-0.048,-0.193,-0.2035,-0.08,-0.125,-0.021,-0.022,0.034,0.0635,0.1635
-0.1825,-0.1495,0.0325,0.1655,-0.107,-0.0585,-0.1745,-0.1845,-0.0625,-0.1125,-0.0185,-0.0225,0.037,0.0485,0.1515
-0.184,-0.162,0.022,0.173,-0.103,-0.07,-0.15,-0.161,-0.0455,-0.1015,-0.0145,-0.0225,0.041,0.0305,0.1395
-0.184,-0.171,0.0125,0.1775,-0.098,-0.079,-0.134,-0.146,-0.034,-0.0915,-0.0125,-0.0235,0.044,0.017,0.1275
-0.1845,-0.1765,0.0075,0.1805,-0.0955,-0.085,-0.1215,-0.133,-0.025,-0.085,-0.014,-0.027,0.0425,0.0045,0.1165
-0.1825,-0.179,0.003,0.1805,-0.0925,-0.088,-0.1115,-0.123,-0.0175,-0.0805,-0.0115,-0.027,0.045,-0.0045,0.109
-0.1805,-0.1825,-0.002,0.1815,-0.089,-0.0925,-0.1065,-0.117,-0.014,-0.0785,-0.0125,-0.027,0.048,-0.015,0.105
-0.1865,-0.187,-0.0005,0.1865,-0.0925,-0.094,-0.1015,-0.1145,-0.0125,-0.0785,-0.0145,-0.0275,0.046,-0.024,0.102
-0.1885,-0.1905,-0.0015,0.1895,-0.093,-0.096,-0.099,-0.1115,-0.0125,-0.0775,-0.014,-0.029,0.0455,-0.0265,0.1025
-0.189,-0.1915,-0.002,0.19,-0.093,-0.097,-0.0985,-0.111,-0.014,-0.0795,-0.015,-0.0325,0.046,-0.024,0.1015
-0.193,-0.188,0.0055,0.1905,-0.099,-0.091,-0.0995,-0.114,-0.0165,-0.0825,-0.018,-0.0355,0.0415,-0.0225,0.0985
-0.194,-0.185,0.0095,0.189,-0.1015,-0.088,-0.1,-0.114,-0.0155,-0.084,-0.0185,-0.035,0.0415,-0.0205,0.0965
-0.1935,-0.1875,0.0065,0.19,-0.1,-0.0905,-0.098,-0.114,-0.0165,-0.084,-0.0215,-0.037,0.0395,-0.02,0.0955
-0.194,-0.189,0.005,0.1915,-0.099,-0.0915,-0.098,-0.1125,-0.018,-0.0875,-0.026,-0.039,0.037,-0.0195,0.0965
-0.1925,-0.1885,0.0045,0.1905,-0.0985,-0.092,-0.0965,-0.1135,-0.019,-0.0885,-0.0275,-0.041,0.0375,-0.0155,0.0975
-0.1905,-0.1895,0.001,0.19,-0.0955,-0.0945,-0.095,-0.1125,-0.019,-0.088,-0.0295,-0.044,0.0365,-0.0135,0.097
-0.19,-0.194,-0.0035,0.1915,-0.093,-0.099,-0.092,-0.1075,-0.0145,-0.0895,-0.0295,-0.043,0.0365,-0.018,0.097
-0.1895,-0.199,-0.0095,0.194,-0.0895,-0.104,-0.0885,-0.105,-0.0145,-0.0895,-0.0285,-0.0445,0.0355,-0.022,0.096
-0.186,-0.1945,-0.0085,0.19,-0.0885,-0.1015,-0.0865,-0.103,-0.0135,-0.087,-0.028,-0.045,0.036,-0.0145,0.095
-0.183,-0.188,-0.0045,0.185,-0.089,-0.0965,-0.0835,-0.1,-0.011,-0.083,-0.0265,-0.043,0.0365,-0.012,0.0935
-0.183,-0.195,-0.012,0.1885,-0.085,-0.1035,-0.082,-0.0965,-0.0095,-0.084,-0.027,-0.0445,0.036,-0.021,0.0935
-0.1875,-0.2085,-0.021,0.198,-0.083,-0.115,-0.0795,-0.095,-0.007,-0.0855,-0.0305,-0.049,0.0345,-0.0315,0.095
-0.189,-0.2125,-0.024,0.2005,-0.082,-0.1185,-0.0755,-0.092,-0.005,-0.084,-0.03,-0.0495,0.0345,-0.0405,0.093
-0.1905,-0.2135,-0.0235,0.2015,-0.083,-0.1185,-0.075,-0.0915,-0.0025,-0.0845,-0.0295,-0.0485,0.0365,-0.0465,0.0915
-0.195,-0.2135,-0.018,0.204,-0.0885,-0.1155,-0.0745,-0.09,-0.0025,-0.085,-0.032,-0.051,0.035,-0.0465,0.091
-0.1935,-0.21,-0.016,0.2015,-0.0885,-0.113,-0.0705,-0.0865,-0.001,-0.081,-0.0295,-0.0465,0.037,-0.0495,0.088
-0.1905,-0.208,-0.0175,0.199,-0.0865,-0.113,-0.069,-0.084,0.0015,-0.0785,-0.026,-0.0435,0.0395,-0.0505,0.087
-0.1905,-0.2065,-0.016,0.198,-0.087,-0.1115,-0.068,-0.0825,0.0,-0.079,-0.027,-0.0435,0.0365,-0.0505,0.088
-0.19,-0.2085,-0.0185,0.199,-0.0855,-0.1135,-0.066,-0.082,0.002,-0.078,-0.0285,-0.044,0.036,-0.056,0.0875
-0.19,-0.208,-0.0185,0.1985,-0.0855,-0.113,-0.065,-0.0815,0.0035,-0.0785,-0.0285,-0.045,0.0375,-0.055,0.0885
-0.193,-0.2045,-0.0115,0.1985,-0.0905,-0.108,-0.0645,-0.0815,0.001,-0.078,-0.0285,-0.0445,0.0365,-0.051,0.089
-0.193,-0.2,-0.0075,0.1965,-0.0925,-0.104,-0.067,-0.083,-0.001,-0.0795,-0.027,-0.0465,0.0355,-0.0455,0.0845
-0.192,-0.2,-0.008,0.196,-0.0915,-0.104,-0.0685,-0.0835,-0.002,-0.08,-0.027,-0.046,0.037,-0.044,0.0825
-0.192,-0.2035,-0.011,0.1975,-0.0905,-0.1075,-0.0675,-0.082,-0.0015,-0.081,-0.0285,-0.045,0.0365,-0.045,0.084
-0.1935,-0.205,-0.0115,0.199,-0.0905,-0.108,-0.0655,-0.082,-0.002,-0.0805,-0.03,-0.047,0.035,-0.038,0.083
-0.1945,-0.2065,-0.0115,0.2005,-0.091,-0.1095,-0.066,-0.082,-0.0015,-0.0805,-0.031,-0.0505,0.033,-0.0355,0.083
-0.194,-0.2055,-0.0115,0.1995,-0.091,-0.1085,-0.0645,-0.0805,-0.003,-0.081,-0.0335,-0.0515,0.033,-0.0345,0.084
-0.1935,-0.207,-0.013,0.2,-0.09,-0.11,-0.0655,-0.08,-0.005,-0.0815,-0.0345,-0.0515,0.034,-0.03,0.0845
-0.194,-0.209,-0.015,0.201,-0.089,-0.112,-0.065,-0.08,-0.005,-0.0845,-0.0345,-0.053,0.0335,-0.033,0.084
-0.192,-0.2065,-0.0145,0.199,-0.0885,-0.1105,-0.0635,-0.08,-0.004,-0.0825,-0.0345,-0.051,0.0355,-0.0325,0.0845
-0.19,-0.2115,-0.0215,0.2005,-0.084,-0.1165,-0.0615,-0.076,-0.0015,-0.082,-0.034,-0.053,0.0355,-0.0385,0.086
-0.191,-0.22,-0.029,0.2055,-0.0805,-0.1245,-0.055,-0.0705,0.0025,-0.081,-0.0345,-0.055,0.0305,-0.051,0.0865
-0.1905,-0.224,-0.033,0.207,-0.0785,-0.1285,-0.0535,-0.0695,0.0035,-0.08,-0.032,-0.0515,0.03,-0.0565,0.085
-0.19,-0.2205,-0.03,0.205,-0.08,-0.1255,-0.0525,-0.0685,0.0035,-0.079,-0.0315,-0.0485,0.032,-0.0595,0.083
-0.191,-0.216,-0.0255,0.2035,-0.0825,-0.121,-0.0515,-0.0665,0.006,-0.076,-0.0305,-0.0485,0.0335,-0.064,0.081
-0.19,-0.2165,-0.0265,0.203,-0.0815,-0.1215,-0.051,-0.0665,0.0065,-0.079,-0.0305,-0.0495,0.0315,-0.07,0.08
-0.19,-0.215,-0.0245,0.2025,-0.0825,-0.12,-0.0485,-0.0645,0.008,-0.078,-0.03,-0.047,0.031,-0.071,0.08
-0.1905,-0.2135,-0.023,0.202,-0.0835,-0.1185,-0.048,-0.0635,0.0075,-0.076,-0.03,-0.047,0.0325,-0.073,0.0805
-0.188,-0.2125,-0.0245,0.2,-0.0815,-0.1185,-0.05,-0.064,0.005,-0.0775,-0.0315,-0.0505,0.0315,-0.075,0.0795
-0.1885,-0.2105,-0.0225,0.1995,-0.083,-0.1165,-0.049,-0.064,0.006,-0.0785,-0.032,-0.0505,0.032,-0.077,0.0795
-0.1885,-0.2055,-0.017,0.1965,-0.0855,-0.111,-0.0485,-0.0665,0.005,-0.078,-0.033,-0.051,0.0305,-0.069,0.0785
-0.189,-0.2045,-0.015,0.1965,-0.087,-0.1095,-0.0515,-0.066,0.0055,-0.0775,-0.031,-0.0495,0.0315,-0.0605,0.078
-0.1905,-0.206,-0.016,0.198,-0.087,-0.111,-0.051,-0.067,0.0055,-0.079,-0.032,-0.0495,0.032,-0.06,0.0785
-0.191,-0.2075,-0.0165,0.199,-0.087,-0.112,-0.0505,-0.068,0.003,-0.079,-0.0345,-0.0515,0.0325,-0.06,0.08
-0.192,-0.2095,-0.018,0.2005,-0.087,-0.114,-0.05,-0.068,0.0035,-0.0825,-0.0345,-0.0525,0.033,-0.06,0.082
-0.194,-0.213,-0.019,0.2035,-0.0875,-0.116,-0.0535,-0.071,0.001,-0.086,-0.0375,-0.057,0.0315,-0.055,0.0825
-0.1905,-0.212,-0.0215,0.201,-0.084,-0.117,-0.0515,-0.0675,0.0025,-0.084,-0.038,-0.057,0.0315,-0.055,0.083
-0.1825,-0.207,-0.0245,0.1945,-0.079,-0.116,-0.0465,-0.0645,0.0045,-0.0835,-0.036,-0.0565,0.0295,-0.0575,0.082
-0.186,-0.2125,-0.027,0.199,-0.079,-0.12,-0.048,-0.0665,0.002,-0.084,-0.037,-0.057,0.0295,-0.057,0.0815
-0.1875,-0.215,-0.0275,0.201,-0.08,-0.121,-0.0495,-0.0665,0.004,-0.084,-0.0385,-0.057,0.0295,-0.0565,0.081
-0.185,-0.2205,-0.0355,0.2025,-0.0745,-0.128,-0.0475,-0.064,0.0045,-0.086,-0.0395,-0.0595,0.0285,-0.0615,0.082
-0.1835,-0.2285,-0.045,0.2055,-0.069,-0.1365,-0.0435,-0.0605,0.0055,-0.0855,-0.039,-0.0595,0.0295,-0.071,0.0845
-0.185,-0.2305,-0.0455,0.2075,-0.0695,-0.1375,-0.0405,-0.0585,0.007,-0.083,-0.0385,-0.0595,0.028,-0.0775,0.0835
-0.1865,-0.2315,-0.045,0.2085,-0.07,-0.1385,-0.041,-0.0585,0.0075,-0.0855,-0.0395,-0.06,0.0275,-0.0785,0.0815
-0.1865,-0.228,-0.0415,0.207,-0.072,-0.135,-0.0405,-0.058,0.007,-0.0845,-0.0395,-0.0565,0.03,-0.081,0.0805
-0.19,-0.2275,-0.037,0.2085,-0.076,-0.132,-0.0375,-0.055,0.0105,-0.0795,-0.0355,-0.0545,0.031,-0.0805,0.079
-0.1935,-0.226,-0.032,0.2095,-0.0805,-0.129,-0.036,-0.054,0.0115,-0.0795,-0.0335,-0.0545,0.0285,-0.0825,0.078
-0.2,-0.226,-0.0255,0.2125,-0.087,-0.1255,-0.0345,-0.054,0.01,-0.08,-0.035,-0.0575,0.027,-0.0875,0.079
-0.2,-0.2265,-0.026,0.213,-0.087,-0.126,-0.0315,-0.0525,0.0125,-0.0785,-0.0335,-0.0565,0.0285,-0.0845,0.0795
-0.1965,-0.2275,-0.0305,0.212,-0.083,-0.129,-0.0325,-0.053,0.013,-0.0795,-0.036,-0.0555,0.0295,-0.0905,0.079
-0.197,-0.223,-0.0255,0.21,-0.086,-0.124,-0.0345,-0.0545,0.0115,-0.0795,-0.037,-0.0555,0.0285,-0.088,0.0775
-0.194,-0.2175,-0.023,0.2055,-0.0855,-0.1205,-0.035,-0.0535,0.012,-0.0795,-0.035,-0.0535,0.0285,-0.078,0.076
-0.1915,-0.216,-0.0245,0.2035,-0.083,-0.1205,-0.039,-0.054,0.011,-0.082,-0.036,-0.056,0.028,-0.072,0.076
-0.194,-0.217,-0.0225,0.2055,-0.086,-0.1195,-0.0385,-0.0555,0.011,-0.0815,-0.036,-0.0565,0.0285,-0.068,0.0765
-0.1955,-0.221,-0.025,0.2085,-0.0855,-0.123,-0.0375,-0.058,0.0075,-0.0855,-0.04,-0.0585,0.028,-0.0675,0.0785
-0.1965,-0.2225,-0.025,0.2095,-0.086,-0.124,-0.04,-0.0605,0.005,-0.0885,-0.0435,-0.062,0.027,-0.0655,0.0815
-0.1975,-0.224,-0.026,0.211,-0.086,-0.125,-0.0375,-0.0585,0.0055,-0.0875,-0.045,-0.0635,0.0265,-0.0665,0.0825
-0.1955,-0.2215,-0.025,0.2085,-0.085,-0.1235,-0.036,-0.0575,0.006,-0.0885,-0.045,-0.0645,0.025,-0.068,0.081
-0.192,-0.222,-0.03,0.2065,-0.0805,-0.126,-0.035,-0.0565,0.006,-0.087,-0.045,-0.064,0.0255,-0.0735,0.08
-0.191,-0.2225,-0.0315,0.2065,-0.0795,-0.127,-0.035,-0.055,0.0075,-0.0855,-0.0445,-0.064,0.025,-0.069,0.0795
-0.1905,-0.2265,-0.036,0.2085,-0.077,-0.131,-0.0315,-0.052,0.011,-0.085,-0.043,-0.064,0.0245,-0.0685,0.0795
-0.1915,-0.236,-0.0445,0.2135,-0.073,-0.1405,-0.0265,-0.0475,0.014,-0.0805,-0.0425,-0.064,0.024,-0.0795,0.082
-0.1915,-0.236,-0.0445,0.2135,-0.073,-0.14,-0.0235,-0.045,0.016,-0.0795,-0.043,-0.0635,0.022,-0.0855,0.0815
-0.189,-0.232,-0.043,0.21,-0.073,-0.1375,-0.022,-0.0435,0.0165,-0.08,-0.0415,-0.0615,0.0235,-0.084,0.0805
-0.187,-0.224,-0.037,0.2055,-0.0745,-0.1305,-0.025,-0.043,0.017,-0.08,-0.0405,-0.0595,0.025,-0.0835,0.0795
-0.1895,-0.228,-0.038,0.2085,-0.0755,-0.133,-0.0235,-0.0435,0.017,-0.0805,-0.041,-0.06,0.0235,-0.0935,0.078
-0.1965,-0.235,-0.0375,0.216,-0.0795,-0.1365,-0.0215,-0.0435,0.0175,-0.08,-0.0405,-0.06,0.0245,-0.093,0.0775
-0.1975,-0.2345,-0.0365,0.216,-0.0805,-0.1355,-0.022,-0.0425,0.018,-0.081,-0.0415,-0.059,0.024,-0.0945,0.077
-0.1945,-0.2335,-0.0385,0.214,-0.078,-0.136,-0.021,-0.0405,0.0175,-0.08,-0.042,-0.0605,0.0225,-0.099,0.0765
-0.194,-0.231,-0.0365,0.2125,-0.0785,-0.134,-0.0195,-0.0405,0.02,-0.0795,-0.04,-0.0595,0.023,-0.0915,0.075
-0.1955,-0.2265,-0.0305,0.211,-0.0825,-0.1285,-0.0205,-0.0425,0.0205,-0.08,-0.0415,-0.059,0.0235,-0.086,0.074
-0.1995,-0.2245,-0.0245,0.212,-0.0875,-0.1245,-0.023,-0.044,0.018,-0.0805,-0.044,-0.061,0.022,-0.0825,0.073
-0.2005,-0.2275,-0.0265,0.214,-0.087,-0.1265,-0.024,-0.045,0.015,-0.0825,-0.0455,-0.062,0.0215,-0.0795,0.075
-0.198,-0.2265,-0.028,0.212,-0.085,-0.127,-0.0265,-0.044,0.0155,-0.083,-0.047,-0.063,0.0225,-0.0745,0.075
-0.2,-0.2285,-0.028,0.214,-0.086,-0.128,-0.0265,-0.044,0.0185,-0.0845,-0.0475,-0.0655,0.021,-0.076,0.075
-0.1955,-0.2295,-0.0335,0.2125,-0.081,-0.1315,-0.0265,-0.046,0.0145,-0.0875,-0.0495,-0.0665,0.022,-0.072,0.0755
-0.192,-0.2305,-0.038,0.211,-0.077,-0.134,-0.0265,-0.0455,0.013,-0.088,-0.0525,-0.0675,0.023,-0.064,0.0775
-0.198,-0.2335,-0.035,0.2155,-0.0815,-0.1345,-0.022,-0.043,0.0155,-0.0865,-0.0505,-0.0675,0.0215,-0.065,0.0785
-0.2015,-0.237,-0.0355,0.2195,-0.083,-0.1365,-0.0195,-0.0405,0.018,-0.085,-0.05,-0.066,0.0225,-0.0675,0.0785
-0.2035,-0.242,-0.0385,0.2225,-0.0825,-0.14,-0.019,-0.0395,0.0195,-0.0835,-0.0505,-0.0635,0.023,-0.072,0.0785
-0.202,-0.2465,-0.044,0.224,-0.079,-0.1455,-0.0155,-0.036,0.0205,-0.0825,-0.0475,-0.064,0.0225,-0.0795,0.0775
-0.2,-0.2545,-0.054,0.227,-0.073,-0.154,-0.011,-0.0315,0.0245,-0.081,-0.05,-0.0655,0.021,-0.086,0.0785
-0.197,-0.253,-0.0555,0.2255,-0.071,-0.1545,-0.0095,-0.0305,0.0255,-0.0805,-0.049,-0.064,0.0195,-0.087,0.077
