i,ii,iii,avr,avl,avf,v1,v2,v3,v4,v5,v6,vx,vy,vz
0.7345,1.6175,0.8835,-1.176,-0.075,1.251,0.1955,0.339,0.2505,0.0825,0.449,0.327,0.3145,-0.41,0.256
0.7315,1.608,0.877,-1.1695,-0.073,1.2425,0.2065,0.3455,0.2565,0.087,0.4515,0.331,0.313,-0.413,0.256
0.734,1.572,0.8385,-1.153,-0.0525,1.2055,0.2195,0.357,0.2665,0.097,0.462,0.3385,0.31,-0.4315,0.2555
0.735,1.56,0.8255,-1.1475,-0.0455,1.193,0.2215,0.3595,0.2715,0.1005,0.4635,0.343,0.3115,-0.445,0.257
0.7345,1.5585,0.8245,-1.1465,-0.045,1.1915,0.2195,0.355,0.2665,0.0975,0.46,0.3405,0.3095,-0.4425,0.258
0.7335,1.5425,0.8095,-1.138,-0.038,1.176,0.225,0.363,0.272,0.1055,0.467,0.346,0.309,-0.4445,0.257
0.73,1.538,0.8085,-1.134,-0.0395,1.1735,0.2265,0.3655,0.275,0.1065,0.4675,0.3475,0.31,-0.4475,0.2575
0.7275,1.5175,0.7905,-1.1225,-0.032,1.1545,0.2315,0.368,0.2825,0.112,0.4725,0.3525,0.309,-0.4635,0.257
0.7305,1.521,0.791,-1.126,-0.0305,1.1565,0.2315,0.3725,0.2865,0.117,0.4755,0.3535,0.3105,-0.461,0.2565
0.727,1.578,0.8515,-1.1525,-0.0625,1.215,0.2115,0.354,0.2635,0.0945,0.455,0.335,0.3115,-0.419,0.258
0.725,1.5915,0.867,-1.158,-0.0715,1.2295,0.208,0.3475,0.2575,0.088,0.449,0.327,0.3085,-0.4115,0.255
0.727,1.5715,0.8445,-1.149,-0.059,1.2085,0.213,0.3525,0.262,0.0935,0.455,0.331,0.311,-0.4295,0.2565
0.7205,1.565,0.845,-1.1425,-0.0625,1.205,0.2155,0.3475,0.261,0.094,0.4575,0.3315,0.3095,-0.436,0.257
0.718,1.563,0.8455,-1.14,-0.064,1.2045,0.216,0.3465,0.26,0.093,0.455,0.3285,0.307,-0.435,0.256
0.7145,1.5535,0.8395,-1.134,-0.063,1.197,0.2165,0.354,0.265,0.0955,0.456,0.33,0.307,-0.4325,0.254
0.702,1.5405,0.839,-1.1215,-0.069,1.19,0.2205,0.354,0.2675,0.0995,0.461,0.3335,0.303,-0.437,0.249
0.701,1.548,0.8475,-1.1245,-0.0735,1.198,0.215,0.347,0.259,0.092,0.455,0.3295,0.3025,-0.4375,0.252
0.702,1.5505,0.849,-1.1265,-0.0735,1.2,0.218,0.3505,0.2605,0.093,0.4535,0.328,0.3,-0.4275,0.251
0.703,1.5395,0.837,-1.121,-0.0675,1.1885,0.2245,0.356,0.2655,0.0975,0.4585,0.331,0.2975,-0.43,0.247
0.7055,1.5395,0.8345,-1.1225,-0.065,1.1875,0.2245,0.3535,0.2645,0.097,0.4585,0.329,0.2975,-0.433,0.2465
0.706,1.547,0.8415,-1.1265,-0.068,1.1945,0.22,0.35,0.2615,0.094,0.454,0.3235,0.297,-0.426,0.248
0.7075,1.563,0.8555,-1.1355,-0.074,1.2095,0.2175,0.3505,0.261,0.093,0.452,0.319,0.2925,-0.421,0.245
0.712,1.572,0.8605,-1.142,-0.0745,1.2165,0.221,0.3505,0.264,0.0955,0.454,0.319,0.2915,-0.416,0.2445
0.7175,1.57,0.853,-1.144,-0.068,1.212,0.225,0.3515,0.266,0.096,0.456,0.3195,0.293,-0.424,0.239
0.718,1.566,0.8485,-1.142,-0.0655,1.2075,0.229,0.3535,0.2685,0.0995,0.4585,0.3215,0.294,-0.426,0.24
0.7245,1.5655,0.8415,-1.145,-0.0585,1.204,0.23,0.3555,0.271,0.103,0.4605,0.327,0.2955,-0.416,0.2435
0.726,1.576,0.8505,-1.151,-0.0625,1.2135,0.231,0.356,0.271,0.1045,0.46,0.328,0.2955,-0.4105,0.239
0.718,1.5695,0.852,-1.1435,-0.0675,1.211,0.2305,0.3545,0.272,0.1055,0.461,0.3325,0.299,-0.4105,0.248
0.72,1.552,0.833,-1.136,-0.057,1.193,0.2395,0.3635,0.28,0.113,0.4705,0.3435,0.3005,-0.4175,0.2485
0.721,1.543,0.8225,-1.132,-0.051,1.183,0.247,0.3705,0.288,0.12,0.478,0.35,0.3,-0.4195,0.2465
0.721,1.542,0.8215,-1.1315,-0.0505,1.182,0.2475,0.372,0.2895,0.122,0.4815,0.3495,0.298,-0.4225,0.247
0.727,1.59,0.8635,-1.1585,-0.0685,1.227,0.2365,0.3625,0.278,0.113,0.47,0.3385,0.2975,-0.3905,0.2435
0.727,1.6215,0.895,-1.1745,-0.084,1.2585,0.226,0.3505,0.27,0.1045,0.4615,0.33,0.297,-0.3645,0.243
0.7235,1.596,0.8735,-1.1595,-0.0755,1.235,0.2365,0.356,0.2755,0.112,0.4695,0.3365,0.2915,-0.378,0.2365
0.719,1.574,0.8555,-1.1465,-0.0685,1.215,0.244,0.3625,0.283,0.119,0.478,0.346,0.2905,-0.3875,0.2315
0.7145,1.556,0.842,-1.135,-0.064,1.199,0.2505,0.369,0.289,0.127,0.485,0.3535,0.2895,-0.3975,0.231
0.715,1.5705,0.856,-1.1425,-0.071,1.2135,0.2445,0.3665,0.2855,0.1245,0.4795,0.35,0.2915,-0.392,0.223
0.7185,1.607,0.889,-1.1625,-0.0855,1.248,0.2295,0.3515,0.273,0.112,0.4695,0.3395,0.2935,-0.3725,0.22
0.722,1.619,0.8975,-1.1705,-0.088,1.2585,0.23,0.3465,0.2685,0.109,0.467,0.334,0.292,-0.3645,0.2215
0.7285,1.619,0.891,-1.174,-0.081,1.255,0.2335,0.348,0.2725,0.1125,0.472,0.336,0.292,-0.362,0.2185
0.729,1.625,0.896,-1.177,-0.0835,1.261,0.237,0.3505,0.2715,0.1125,0.4715,0.3345,0.2905,-0.3565,0.217
0.7255,1.6225,0.8975,-1.174,-0.086,1.26,0.2435,0.353,0.275,0.1155,0.472,0.3315,0.284,-0.354,0.215
0.7275,1.618,0.891,-1.173,-0.082,1.255,0.248,0.3545,0.279,0.1185,0.4745,0.332,0.2815,-0.354,0.2135
0.7325,1.605,0.873,-1.1685,-0.0705,1.239,0.2555,0.3625,0.2855,0.1245,0.4785,0.3345,0.28,-0.369,0.2115
0.735,1.5965,0.862,-1.1655,-0.0635,1.229,0.2545,0.3645,0.2875,0.1275,0.4805,0.3335,0.2785,-0.377,0.2095
0.7335,1.611,0.8785,-1.1725,-0.0725,1.245,0.2485,0.354,0.2795,0.12,0.471,0.327,0.2805,-0.374,0.1995
0.7335,1.616,0.883,-1.175,-0.075,1.25,0.2465,0.3495,0.2785,0.118,0.47,0.3245,0.2815,-0.3735,0.1965
0.7345,1.6145,0.881,-1.1745,-0.0735,1.248,0.247,0.3565,0.282,0.123,0.475,0.329,0.286,-0.3695,0.1975
0.7335,1.6285,0.8955,-1.181,-0.081,1.262,0.244,0.355,0.281,0.1225,0.471,0.3295,0.288,-0.359,0.1945
0.734,1.64,0.906,-1.187,-0.0865,1.2735,0.237,0.3505,0.2775,0.12,0.469,0.33,0.2905,-0.3525,0.1935
0.734,1.6265,0.8935,-1.1805,-0.08,1.26,0.2385,0.354,0.283,0.1255,0.4745,0.337,0.2915,-0.361,0.191
0.737,1.6245,0.888,-1.181,-0.0755,1.2565,0.234,0.352,0.2855,0.128,0.477,0.34,0.2925,-0.3605,0.1895
0.74,1.6435,0.9045,-1.1915,-0.0825,1.274,0.222,0.346,0.2795,0.1245,0.4755,0.3375,0.2935,-0.3505,0.1875
0.74,1.653,0.9135,-1.1965,-0.0875,1.2835,0.2145,0.3465,0.2815,0.1285,0.479,0.3365,0.2925,-0.3375,0.1885
0.7465,1.647,0.902,-1.1965,-0.078,1.2745,0.213,0.353,0.2915,0.138,0.4885,0.344,0.298,-0.3375,0.193
0.7425,1.639,0.8975,-1.1905,-0.0775,1.2685,0.2115,0.3545,0.296,0.1425,0.493,0.347,0.2975,-0.339,0.2005
0.74,1.645,0.9055,-1.1925,-0.083,1.2755,0.2,0.3485,0.291,0.142,0.4925,0.341,0.2955,-0.335,0.2005
0.7515,1.6515,0.901,-1.2015,-0.075,1.2765,0.1875,0.346,0.291,0.143,0.4945,0.34,0.299,-0.3365,0.1985
0.7595,1.641,0.882,-1.2005,-0.0615,1.2615,0.1865,0.353,0.3005,0.151,0.5005,0.3455,0.2995,-0.3405,0.204
0.7645,1.653,0.8895,-1.2085,-0.0625,1.271,0.1715,0.348,0.295,0.148,0.4975,0.343,0.3015,-0.335,0.2095
0.765,1.67,0.9055,-1.217,-0.0705,1.288,0.158,0.341,0.289,0.1425,0.489,0.3365,0.302,-0.3245,0.2125
0.7615,1.6735,0.9125,-1.2175,-0.0755,1.293,0.1525,0.3355,0.284,0.1385,0.4835,0.334,0.3015,-0.3175,0.215
0.7625,1.6755,0.9135,-1.219,-0.076,1.2945,0.141,0.3245,0.277,0.133,0.479,0.3365,0.307,-0.3135,0.2185
0.768,1.6625,0.895,-1.215,-0.064,1.279,0.141,0.3275,0.282,0.1385,0.4855,0.346,0.31,-0.32,0.2235
0.766,1.6575,0.892,-1.212,-0.0635,1.2755,0.135,0.324,0.2765,0.136,0.485,0.344,0.3105,-0.3265,0.2295
0.766,1.6605,0.895,-1.213,-0.065,1.278,0.1305,0.322,0.274,0.1335,0.4835,0.3395,0.3125,-0.3265,0.233
0.767,1.6715,0.9055,-1.2195,-0.0695,1.2885,0.1245,0.326,0.274,0.133,0.4835,0.337,0.314,-0.318,0.239
0.765,1.665,0.9005,-1.215,-0.068,1.283,0.1185,0.3275,0.2765,0.1335,0.4845,0.3375,0.314,-0.3155,0.242
0.7675,1.643,0.876,-1.205,-0.054,1.2595,0.1245,0.3355,0.2845,0.143,0.4925,0.345,0.313,-0.3345,0.2405
0.7695,1.649,0.8805,-1.209,-0.0555,1.265,0.1175,0.3295,0.2795,0.142,0.49,0.3405,0.312,-0.34,0.243
0.771,1.672,0.9015,-1.2215,-0.0655,1.287,0.1085,0.319,0.273,0.136,0.4845,0.3355,0.3145,-0.329,0.2455
0.776,1.6825,0.9065,-1.2295,-0.0655,1.295,0.1075,0.315,0.2685,0.1325,0.48,0.334,0.316,-0.318,0.2495
0.7775,1.683,0.906,-1.2305,-0.0645,1.2945,0.1045,0.3055,0.261,0.127,0.4795,0.3345,0.314,-0.2995,0.2545
0.773,1.683,0.9105,-1.228,-0.0685,1.297,0.0995,0.3055,0.2615,0.13,0.484,0.338,0.3145,-0.286,0.2585
0.772,1.68,0.909,-1.226,-0.069,1.295,0.096,0.3105,0.2635,0.129,0.483,0.335,0.3125,-0.2815,0.2635
0.7615,1.674,0.913,-1.2175,-0.076,1.2935,0.097,0.309,0.2615,0.126,0.481,0.335,0.309,-0.2895,0.2605
0.7515,1.6675,0.9165,-1.2095,-0.083,1.2925,0.099,0.3045,0.2575,0.124,0.48,0.3345,0.3075,-0.2975,0.262
0.7595,1.6725,0.9135,-1.216,-0.0775,1.293,0.0975,0.3,0.2565,0.123,0.4795,0.333,0.3085,-0.293,0.268
0.765,1.678,0.914,-1.2215,-0.075,1.2965,0.0915,0.299,0.2545,0.123,0.4805,0.333,0.312,-0.2845,0.2695
0.7695,1.6805,0.9115,-1.225,-0.071,1.296,0.089,0.2995,0.2525,0.1205,0.4805,0.333,0.317,-0.2805,0.2725
0.7765,1.6795,0.9035,-1.228,-0.064,1.292,0.087,0.301,0.256,0.125,0.4835,0.336,0.3215,-0.28,0.2805
0.7745,1.678,0.904,-1.2265,-0.065,1.2915,0.0855,0.3015,0.2595,0.131,0.489,0.3405,0.328,-0.278,0.2855
0.78,1.6875,0.9075,-1.2335,-0.064,1.2975,0.086,0.3045,0.2645,0.1365,0.494,0.3475,0.3355,-0.2755,0.2815
0.789,1.7015,0.9125,-1.245,-0.062,1.307,0.0835,0.3075,0.2675,0.141,0.498,0.3495,0.338,-0.264,0.281
0.792,1.703,0.9115,-1.2475,-0.06,1.3075,0.088,0.3115,0.272,0.1455,0.5015,0.353,0.3405,-0.2645,0.2815
0.7925,1.6945,0.9025,-1.2435,-0.0555,1.2985,0.088,0.311,0.2745,0.149,0.505,0.3555,0.342,-0.2705,0.282
0.7945,1.695,0.901,-1.245,-0.0535,1.298,0.0825,0.307,0.272,0.148,0.5045,0.354,0.347,-0.2705,0.2865
0.799,1.6965,0.898,-1.248,-0.0495,1.2975,0.079,0.305,0.273,0.1475,0.5045,0.3545,0.351,-0.27,0.289
0.794,1.6915,0.898,-1.243,-0.052,1.295,0.0785,0.308,0.275,0.149,0.5085,0.3565,0.3525,-0.2675,0.285
0.7925,1.6925,0.9005,-1.2425,-0.0545,1.2965,0.0815,0.3125,0.2775,0.1525,0.5095,0.3585,0.359,-0.269,0.2855
0.7975,1.699,0.902,-1.2485,-0.0525,1.301,0.0775,0.312,0.2785,0.1525,0.508,0.3565,0.3625,-0.265,0.2895
0.8015,1.701,0.9,-1.251,-0.0495,1.3005,0.0785,0.3115,0.2755,0.15,0.507,0.355,0.3635,-0.2665,0.29
0.7995,1.6915,0.8925,-1.2455,-0.0465,1.292,0.079,0.31,0.271,0.146,0.504,0.351,0.3595,-0.2755,0.2915
0.7965,1.6825,0.886,-1.2395,-0.045,1.2845,0.083,0.3095,0.272,0.1455,0.5045,0.351,0.3575,-0.282,0.29
0.7965,1.675,0.8785,-1.236,-0.041,1.277,0.089,0.312,0.2725,0.146,0.504,0.3505,0.3575,-0.29,0.2905
0.7945,1.672,0.8775,-1.2335,-0.0415,1.275,0.0915,0.311,0.2705,0.1455,0.502,0.349,0.356,-0.296,0.2855
0.7905,1.674,0.8845,-1.232,-0.047,1.2795,0.094,0.313,0.2745,0.15,0.5055,0.3515,0.356,-0.293,0.278
0.7955,1.671,0.8755,-1.2335,-0.04,1.2735,0.096,0.316,0.2755,0.1505,0.5075,0.351,0.3565,-0.2965,0.278
0.8,1.6695,0.87,-1.2345,-0.0355,1.27,0.0965,0.3155,0.274,0.147,0.5035,0.3485,0.359,-0.3015,0.2815
0.8035,1.67,0.867,-1.2365,-0.032,1.2685,0.096,0.317,0.2745,0.1475,0.5035,0.348,0.3635,-0.3,0.293
0.8105,1.666,0.855,-1.2385,-0.0225,1.2605,0.102,0.321,0.277,0.151,0.5065,0.3505,0.3665,-0.3015,0.2905
0.802,1.665,0.8635,-1.2335,-0.031,1.264,0.1045,0.3165,0.274,0.1485,0.504,0.348,0.3635,-0.3045,0.2805
0.801,1.6675,0.867,-1.234,-0.0335,1.2675,0.1065,0.313,0.2705,0.144,0.5015,0.3435,0.3615,-0.31,0.2865
0.801,1.661,0.8605,-1.231,-0.03,1.261,0.108,0.311,0.2665,0.1405,0.497,0.3375,0.359,-0.314,0.288
0.7925,1.654,0.862,-1.2235,-0.035,1.258,0.1075,0.308,0.2625,0.1355,0.4925,0.335,0.3545,-0.318,0.2855
0.793,1.646,0.853,-1.2195,-0.03,1.25,0.109,0.3085,0.262,0.1355,0.492,0.335,0.354,-0.328,0.288
0.7905,1.6415,0.8515,-1.216,-0.031,1.2465,0.1145,0.3085,0.2595,0.1345,0.492,0.3345,0.353,-0.3335,0.286
0.7815,1.6425,0.862,-1.212,-0.0405,1.2525,0.1285,0.3105,0.26,0.1335,0.4915,0.3365,0.3485,-0.331,0.2805
0.771,1.636,0.865,-1.2035,-0.0475,1.251,0.136,0.3095,0.259,0.1335,0.49,0.3355,0.3455,-0.331,0.285
0.7625,1.6285,0.866,-1.1955,-0.052,1.2475,0.14,0.3045,0.253,0.1275,0.4865,0.33,0.341,-0.3355,0.285
0.7515,1.6115,0.8605,-1.1815,-0.0545,1.236,0.145,0.3055,0.251,0.1255,0.4825,0.3255,0.3385,-0.349,0.2725
0.7455,1.5845,0.84,-1.165,-0.0475,1.2125,0.153,0.3115,0.2605,0.134,0.4875,0.3295,0.341,-0.3665,0.2705
0.743,1.5765,0.834,-1.16,-0.046,1.2055,0.156,0.307,0.2535,0.128,0.484,0.325,0.3355,-0.3735,0.2715
0.7345,1.5875,0.8535,-1.161,-0.06,1.221,0.153,0.303,0.2415,0.1165,0.4735,0.3145,0.3305,-0.3715,0.268
0.736,1.6015,0.866,-1.1685,-0.065,1.234,0.149,0.301,0.241,0.112,0.4685,0.306,0.331,-0.362,0.266
0.7375,1.5975,0.8605,-1.1675,-0.062,1.2295,0.149,0.301,0.2405,0.1115,0.4655,0.3005,0.329,-0.3675,0.2645
0.7315,1.5775,0.846,-1.1545,-0.0575,1.2115,0.155,0.305,0.243,0.114,0.4665,0.3,0.327,-0.3855,0.2605
0.735,1.5785,0.844,-1.157,-0.055,1.2115,0.156,0.3025,0.2425,0.1145,0.4655,0.298,0.3275,-0.381,0.2615
0.7345,1.5715,0.8375,-1.1535,-0.052,1.205,0.164,0.305,0.245,0.117,0.4675,0.299,0.3255,-0.389,0.2615
0.732,1.587,0.855,-1.1595,-0.0615,1.2215,0.163,0.3015,0.2385,0.109,0.46,0.2895,0.323,-0.384,0.2575
0.737,1.588,0.852,-1.1625,-0.058,1.2205,0.1665,0.3095,0.2415,0.1085,0.46,0.2875,0.3215,-0.382,0.2565
0.7345,1.57,0.836,-1.1525,-0.051,1.2035,0.172,0.3145,0.2475,0.111,0.462,0.2875,0.319,-0.3975,0.2545
0.73,1.57,0.8405,-1.15,-0.0555,1.2055,0.169,0.309,0.244,0.11,0.4575,0.2835,0.3155,-0.396,0.2495
0.732,1.541,0.809,-1.1365,-0.0385,1.175,0.1805,0.3195,0.2515,0.119,0.466,0.2905,0.313,-0.415,0.2455
0.733,1.557,0.8245,-1.145,-0.046,1.191,0.1775,0.317,0.2465,0.1125,0.458,0.282,0.3105,-0.409,0.246
0.726,1.574,0.849,-1.15,-0.062,1.212,0.174,0.309,0.2375,0.1045,0.4495,0.2735,0.3065,-0.3985,0.2425
0.721,1.569,0.8485,-1.145,-0.064,1.209,0.176,0.309,0.236,0.102,0.4475,0.2715,0.3025,-0.4025,0.24
0.7165,1.582,0.866,-1.1495,-0.075,1.2245,0.1725,0.3045,0.2335,0.0965,0.441,0.2655,0.298,-0.3925,0.2405
0.7175,1.589,0.872,-1.1535,-0.0775,1.231,0.1695,0.3,0.227,0.094,0.436,0.263,0.298,-0.3935,0.241
0.7175,1.585,0.8675,-1.1515,-0.075,1.2265,0.1735,0.305,0.228,0.095,0.435,0.262,0.298,-0.395,0.2405
0.7085,1.557,0.8485,-1.1325,-0.0705,1.203,0.1805,0.3135,0.2365,0.0995,0.44,0.267,0.294,-0.4065,0.2345
0.7075,1.5395,0.832,-1.1235,-0.0625,1.186,0.186,0.318,0.24,0.1035,0.4425,0.2695,0.2915,-0.42,0.233
0.707,1.544,0.8375,-1.1255,-0.0655,1.191,0.1895,0.3185,0.241,0.1015,0.4405,0.2685,0.292,-0.4145,0.236
0.7075,1.5355,0.829,-1.1215,-0.061,1.1825,0.186,0.3165,0.2395,0.0995,0.438,0.265,0.2885,-0.4225,0.233
0.71,1.5225,0.813,-1.1165,-0.0515,1.168,0.19,0.318,0.239,0.1015,0.4375,0.2665,0.287,-0.4335,0.231
0.708,1.514,0.8065,-1.111,-0.0495,1.16,0.1965,0.3215,0.241,0.104,0.4415,0.2695,0.289,-0.4455,0.227
0.704,1.509,0.806,-1.1065,-0.051,1.1575,0.1955,0.318,0.2405,0.103,0.4375,0.262,0.2845,-0.4515,0.223
0.703,1.514,0.812,-1.1085,-0.0545,1.163,0.189,0.311,0.234,0.0965,0.4295,0.255,0.2825,-0.442,0.229
0.7045,1.5215,0.817,-1.113,-0.0565,1.1695,0.1845,0.311,0.231,0.093,0.427,0.25,0.2815,-0.442,0.2285
0.703,1.5125,0.81,-1.108,-0.054,1.1615,0.185,0.318,0.236,0.0965,0.429,0.251,0.2805,-0.453,0.226
0.71,1.5335,0.824,-1.1215,-0.0575,1.179,0.176,0.3105,0.2275,0.0905,0.4225,0.243,0.281,-0.433,0.2365
0.712,1.5625,0.851,-1.1375,-0.0695,1.207,0.1705,0.302,0.2185,0.081,0.4135,0.2305,0.2775,-0.4065,0.2435
0.7125,1.563,0.851,-1.138,-0.0695,1.2075,0.1715,0.303,0.2195,0.0835,0.415,0.231,0.278,-0.4045,0.239
0.715,1.551,0.8365,-1.133,-0.061,1.194,0.174,0.3045,0.222,0.0865,0.4195,0.234,0.278,-0.4135,0.2325
0.71,1.531,0.822,-1.1205,-0.0565,1.1765,0.1765,0.3095,0.226,0.0895,0.4225,0.239,0.2765,-0.43,0.233
0.7095,1.5265,0.8175,-1.118,-0.054,1.172,0.181,0.3075,0.2255,0.09,0.423,0.2425,0.2785,-0.436,0.233
0.7105,1.519,0.809,-1.115,-0.0495,1.1645,0.185,0.31,0.2285,0.0955,0.426,0.2525,0.282,-0.445,0.2325
0.71,1.5125,0.803,-1.1115,-0.047,1.1585,0.1765,0.3115,0.231,0.096,0.4265,0.256,0.287,-0.452,0.2365
0.7145,1.502,0.7875,-1.108,-0.0365,1.145,0.179,0.3155,0.233,0.097,0.431,0.2585,0.29,-0.461,0.2355
0.716,1.516,0.8005,-1.116,-0.0425,1.1585,0.182,0.316,0.2325,0.0975,0.4315,0.2565,0.2905,-0.4465,0.2325
0.7095,1.5355,0.8265,-1.1225,-0.0585,1.181,0.181,0.3105,0.229,0.093,0.427,0.2495,0.287,-0.4245,0.23
0.715,1.546,0.8315,-1.1305,-0.0585,1.189,0.1765,0.31,0.226,0.091,0.424,0.247,0.288,-0.4205,0.2315
0.7145,1.538,0.8235,-1.1265,-0.055,1.181,0.176,0.313,0.2285,0.093,0.427,0.2495,0.287,-0.435,0.2315
0.714,1.517,0.8035,-1.1155,-0.045,1.1605,0.185,0.3165,0.2355,0.099,0.434,0.2575,0.287,-0.4465,0.2325
0.7205,1.5305,0.8105,-1.1255,-0.045,1.1705,0.18,0.314,0.231,0.096,0.432,0.2535,0.289,-0.431,0.233
0.7235,1.5405,0.818,-1.132,-0.0475,1.1795,0.1755,0.314,0.229,0.094,0.4295,0.25,0.292,-0.4315,0.234
0.726,1.546,0.821,-1.136,-0.0475,1.184,0.1725,0.313,0.229,0.093,0.4295,0.25,0.294,-0.431,0.239
0.723,1.549,0.8265,-1.136,-0.052,1.1885,0.1705,0.311,0.229,0.093,0.4285,0.2495,0.293,-0.4305,0.2345
0.7245,1.555,0.831,-1.1395,-0.054,1.1935,0.1705,0.31,0.2265,0.0905,0.426,0.248,0.2925,-0.4315,0.2295
0.722,1.551,0.83,-1.1365,-0.0545,1.191,0.168,0.3045,0.2225,0.0875,0.424,0.2435,0.289,-0.4295,0.229
0.722,1.5475,0.8265,-1.1345,-0.0525,1.187,0.1675,0.309,0.227,0.091,0.4275,0.2485,0.2935,-0.431,0.2315
0.718,1.5505,0.833,-1.1345,-0.058,1.192,0.1725,0.3125,0.227,0.093,0.4285,0.248,0.2925,-0.4345,0.2275
0.7155,1.547,0.832,-1.1315,-0.0585,1.19,0.1745,0.3095,0.2245,0.0915,0.425,0.245,0.2895,-0.435,0.228
0.7225,1.545,0.823,-1.134,-0.0505,1.1845,0.176,0.3115,0.2265,0.092,0.4265,0.247,0.293,-0.436,0.2345
0.7225,1.542,0.8205,-1.132,-0.0495,1.1815,0.179,0.314,0.229,0.094,0.4295,0.247,0.294,-0.443,0.2335
0.7245,1.5505,0.827,-1.1375,-0.0515,1.189,0.1735,0.3085,0.2255,0.0895,0.427,0.2455,0.2985,-0.4365,0.239
0.7255,1.557,0.832,-1.141,-0.0535,1.1945,0.1755,0.307,0.224,0.0905,0.4265,0.2435,0.2995,-0.4265,0.233
0.7225,1.5475,0.8255,-1.135,-0.052,1.187,0.1795,0.312,0.227,0.095,0.428,0.245,0.3005,-0.427,0.2305
0.719,1.5455,0.8275,-1.1325,-0.0545,1.1865,0.1765,0.31,0.2265,0.0925,0.4275,0.245,0.303,-0.4345,0.239
0.719,1.535,0.8165,-1.127,-0.049,1.176,0.18,0.315,0.2295,0.096,0.431,0.245,0.302,-0.445,0.2345
0.7195,1.521,0.802,-1.12,-0.0415,1.1615,0.182,0.3215,0.235,0.101,0.435,0.247,0.2995,-0.4445,0.2305
0.716,1.5245,0.809,-1.1205,-0.0465,1.167,0.1795,0.32,0.234,0.1,0.432,0.2445,0.298,-0.437,0.238
0.7165,1.528,0.812,-1.1225,-0.048,1.17,0.177,0.318,0.2295,0.0975,0.428,0.2405,0.297,-0.4365,0.2415
0.716,1.532,0.8165,-1.124,-0.0505,1.1745,0.1755,0.3155,0.2275,0.094,0.4245,0.236,0.2935,-0.4345,0.238
0.714,1.526,0.8125,-1.12,-0.0495,1.1695,0.178,0.315,0.2265,0.093,0.423,0.2345,0.291,-0.4405,0.2405
0.7125,1.5235,0.8115,-1.1185,-0.0495,1.1675,0.178,0.3115,0.2245,0.0915,0.419,0.232,0.2875,-0.4545,0.241
0.71,1.5175,0.808,-1.114,-0.049,1.163,0.1775,0.3135,0.2255,0.0905,0.4175,0.2305,0.2855,-0.455,0.2395
0.7075,1.5025,0.7955,-1.105,-0.0445,1.1495,0.18,0.3185,0.2285,0.094,0.421,0.2385,0.2895,-0.4515,0.239
0.711,1.5115,0.801,-1.1115,-0.0455,1.1565,0.183,0.318,0.228,0.0935,0.42,0.238,0.2885,-0.448,0.2355
0.716,1.5245,0.809,-1.1205,-0.0465,1.167,0.18,0.316,0.2255,0.0895,0.415,0.233,0.2855,-0.446,0.236
0.7235,1.5295,0.807,-1.1265,-0.042,1.1685,0.1755,0.3075,0.22,0.0875,0.4105,0.229,0.284,-0.4425,0.2335
0.724,1.52,0.7965,-1.122,-0.0365,1.159,0.1765,0.3095,0.2215,0.089,0.413,0.2275,0.281,-0.442,0.233
0.7145,1.514,0.8,-1.1145,-0.043,1.1575,0.179,0.318,0.227,0.0895,0.414,0.227,0.2805,-0.4385,0.2335
0.711,1.525,0.8145,-1.118,-0.052,1.17,0.177,0.3145,0.2205,0.085,0.408,0.223,0.281,-0.4285,0.234
0.7085,1.5295,0.8215,-1.119,-0.057,1.176,0.1745,0.309,0.2165,0.083,0.4055,0.2205,0.2835,-0.4295,0.235
0.7045,1.528,0.824,-1.1165,-0.0595,1.1765,0.175,0.311,0.2175,0.0835,0.405,0.222,0.284,-0.432,0.229
0.705,1.5325,0.828,-1.119,-0.0615,1.1805,0.169,0.309,0.212,0.0815,0.4055,0.22,0.286,-0.43,0.23
0.712,1.531,0.8195,-1.1215,-0.054,1.1755,0.173,0.306,0.2135,0.085,0.4095,0.2255,0.287,-0.4335,0.235
0.713,1.524,0.8115,-1.1185,-0.0495,1.168,0.177,0.3085,0.2155,0.0865,0.4125,0.2305,0.286,-0.436,0.236
0.712,1.521,0.8095,-1.1165,-0.049,1.1655,0.176,0.3155,0.2175,0.088,0.4135,0.231,0.288,-0.4315,0.2325
0.714,1.5085,0.7945,-1.111,-0.0405,1.1515,0.18,0.3235,0.2305,0.0995,0.421,0.2385,0.289,-0.438,0.2285
0.72,1.5035,0.7845,-1.112,-0.0325,1.1445,0.184,0.324,0.232,0.102,0.424,0.2415,0.29,-0.447,0.228
0.7205,1.513,0.7925,-1.1165,-0.036,1.153,0.18,0.3195,0.223,0.094,0.418,0.2375,0.287,-0.443,0.225
0.719,1.517,0.7985,-1.118,-0.0405,1.158,0.174,0.3175,0.222,0.0925,0.417,0.235,0.286,-0.436,0.2275
0.729,1.5185,0.79,-1.1235,-0.031,1.1545,0.1825,0.3245,0.229,0.0985,0.4215,0.24,0.29,-0.441,0.233
0.7285,1.5235,0.7955,-1.126,-0.0335,1.1595,0.1815,0.324,0.2285,0.0985,0.421,0.24,0.291,-0.4445,0.2265
0.7215,1.5475,0.8265,-1.1345,-0.053,1.1875,0.173,0.311,0.216,0.0875,0.411,0.2295,0.2895,-0.4285,0.2175
0.7155,1.563,0.848,-1.139,-0.0665,1.2055,0.1705,0.3005,0.208,0.0805,0.402,0.22,0.2875,-0.421,0.2175
0.7145,1.5465,0.8325,-1.1305,-0.0595,1.19,0.174,0.308,0.215,0.089,0.41,0.2245,0.2885,-0.4305,0.2215
0.7175,1.5415,0.8245,-1.1295,-0.054,1.1835,0.178,0.313,0.218,0.09,0.4115,0.2225,0.286,-0.4265,0.2165
0.7165,1.544,0.828,-1.13,-0.0565,1.1865,0.179,0.3085,0.2165,0.0865,0.409,0.2165,0.2845,-0.4245,0.215
0.7125,1.537,0.825,-1.1245,-0.0565,1.181,0.1775,0.3065,0.213,0.085,0.407,0.211,0.28,-0.435,0.218
0.7105,1.53,0.82,-1.1205,-0.055,1.175,0.1775,0.312,0.2165,0.088,0.4055,0.207,0.276,-0.4295,0.2225
0.7135,1.5295,0.8165,-1.1215,-0.0515,1.173,0.182,0.3175,0.2225,0.093,0.4085,0.206,0.276,-0.43,0.2255
0.7145,1.517,0.803,-1.116,-0.0445,1.16,0.1885,0.314,0.2185,0.0925,0.407,0.202,0.269,-0.452,0.222
0.7185,1.509,0.7915,-1.114,-0.0365,1.1505,0.195,0.317,0.2215,0.095,0.4095,0.2035,0.266,-0.456,0.218
0.712,1.527,0.8155,-1.1195,-0.052,1.171,0.188,0.312,0.2165,0.09,0.4015,0.197,0.262,-0.438,0.2175
0.706,1.5165,0.811,-1.111,-0.0525,1.164,0.1925,0.3195,0.222,0.0935,0.402,0.2015,0.262,-0.443,0.217
0.7075,1.495,0.7875,-1.1015,-0.04,1.1415,0.204,0.3335,0.2355,0.1055,0.413,0.221,0.2675,-0.458,0.213
0.71,1.505,0.795,-1.1075,-0.043,1.1505,0.198,0.3295,0.232,0.103,0.412,0.224,0.268,-0.441,0.2125
0.715,1.528,0.8135,-1.1215,-0.0495,1.171,0.194,0.3275,0.2295,0.098,0.408,0.218,0.27,-0.4245,0.211
0.7155,1.5405,0.8255,-1.128,-0.055,1.1835,0.1975,0.3275,0.2295,0.0985,0.405,0.212,0.271,-0.425,0.208
0.7145,1.5285,0.8145,-1.1215,-0.05,1.172,0.2065,0.3375,0.239,0.1065,0.4105,0.2135,0.27,-0.4345,0.2005
0.711,1.5185,0.8085,-1.115,-0.049,1.164,0.2175,0.3515,0.252,0.113,0.4165,0.218,0.2715,-0.4415,0.1905
0.713,1.521,0.809,-1.117,-0.048,1.1655,0.2265,0.3615,0.259,0.1165,0.4165,0.2165,0.277,-0.4375,0.18
0.7135,1.52,0.8075,-1.117,-0.047,1.164,0.235,0.3675,0.266,0.1215,0.421,0.2185,0.28,-0.4395,0.1655
0.71,1.5175,0.808,-1.1135,-0.0495,1.163,0.244,0.3705,0.2715,0.125,0.423,0.217,0.2795,-0.452,0.155
0.719,1.517,0.799,-1.118,-0.0405,1.1585,0.251,0.383,0.2845,0.136,0.4285,0.222,0.2845,-0.453,0.15
0.7225,1.509,0.787,-1.116,-0.0325,1.1485,0.2505,0.3875,0.297,0.1505,0.4395,0.235,0.293,-0.448,0.156
0.7255,1.503,0.7775,-1.114,-0.026,1.1405,0.233,0.3815,0.3055,0.1625,0.45,0.2425,0.3025,-0.4515,0.166
0.74,1.5165,0.777,-1.1285,-0.019,1.1475,0.209,0.378,0.3145,0.178,0.462,0.251,0.3185,-0.4515,0.1755
0.748,1.5595,0.8125,-1.154,-0.0325,1.186,0.189,0.3595,0.309,0.1805,0.463,0.2485,0.33,-0.4315,0.192
0.752,1.5955,0.844,-1.174,-0.0465,1.22,0.1775,0.3565,0.316,0.189,0.4675,0.248,0.34,-0.405,0.1935
0.745,1.5925,0.848,-1.169,-0.052,1.2205,0.181,0.3515,0.328,0.207,0.482,0.258,0.345,-0.399,0.1865
0.738,1.583,0.8455,-1.1605,-0.054,1.2145,0.1725,0.329,0.329,0.2215,0.4955,0.2665,0.35,-0.3995,0.209
0.7485,1.588,0.8405,-1.168,-0.046,1.2145,0.15,0.3335,0.3495,0.251,0.5175,0.2825,0.3685,-0.395,0.239
0.7565,1.5935,0.8375,-1.175,-0.0405,1.2155,0.129,0.3365,0.372,0.282,0.544,0.3,0.3865,-0.4025,0.2595
0.77,1.601,0.831,-1.1855,-0.031,1.2165,0.094,0.3195,0.3805,0.3095,0.5665,0.315,0.404,-0.4105,0.2905
0.782,1.616,0.835,-1.199,-0.027,1.2255,0.0435,0.278,0.3735,0.3295,0.5855,0.329,0.423,-0.398,0.3335
0.7875,1.622,0.835,-1.2045,-0.024,1.2285,-0.007,0.236,0.367,0.352,0.608,0.3475,0.442,-0.389,0.3805
0.7975,1.634,0.837,-1.2155,-0.02,1.2355,-0.075,0.179,0.3465,0.3705,0.6305,0.366,0.4615,-0.384,0.4385
0.804,1.6385,0.835,-1.221,-0.016,1.237,-0.1315,0.1135,0.3095,0.372,0.642,0.3785,0.476,-0.3825,0.498
0.807,1.6445,0.838,-1.2255,-0.016,1.2415,-0.1835,0.0475,0.273,0.374,0.6525,0.39,0.487,-0.3745,0.5545
0.81,1.666,0.8565,-1.238,-0.0235,1.2615,-0.2505,-0.0285,0.248,0.394,0.6775,0.4095,0.507,-0.3555,0.6025
0.8245,1.689,0.865,-1.2565,-0.0205,1.277,-0.308,-0.087,0.241,0.4315,0.72,0.4485,0.5425,-0.331,0.635
0.837,1.7,0.863,-1.2685,-0.013,1.2815,-0.3685,-0.1545,0.222,0.465,0.76,0.484,0.5735,-0.329,0.677
0.85,1.6985,0.849,-1.274,0.0005,1.274,-0.4335,-0.2225,0.21,0.506,0.805,0.5225,0.606,-0.3325,0.7165
0.8705,1.727,0.857,-1.2985,0.0065,1.2925,-0.5145,-0.278,0.1995,0.5395,0.8485,0.557,0.648,-0.312,0.769
0.8865,1.746,0.8605,-1.3165,0.013,1.3035,-0.5565,-0.287,0.2105,0.582,0.8925,0.5885,0.69,-0.3,0.814
0.9095,1.7565,0.8475,-1.333,0.0305,1.3025,-0.5915,-0.3035,0.221,0.631,0.9445,0.632,0.7335,-0.2965,0.8465
0.94,1.7805,0.841,-1.36,0.049,1.311,-0.669,-0.3525,0.212,0.6645,0.986,0.668,0.776,-0.288,0.8965
0.959,1.8125,0.854,-1.3855,0.052,1.3335,-0.726,-0.3955,0.197,0.6835,1.0145,0.6935,0.81,-0.261,0.945
0.977,1.843,0.8665,-1.41,0.055,1.355,-0.7825,-0.442,0.169,0.694,1.04,0.7205,0.8445,-0.248,0.9935
1.0105,1.8495,0.8395,-1.43,0.0855,1.345,-0.8665,-0.4895,0.1595,0.7355,1.097,0.7735,0.898,-0.248,1.0415
1.036,1.8635,0.8285,-1.4495,0.1035,1.346,-0.954,-0.5775,0.129,0.7635,1.1485,0.8235,0.948,-0.2335,1.093
1.061,1.871,0.8105,-1.466,0.125,1.341,-1.0315,-0.6595,0.094,0.779,1.1855,0.8635,0.9875,-0.2345,1.152
1.098,1.882,0.7845,-1.49,0.1565,1.3335,-1.11,-0.7065,0.0895,0.818,1.239,0.9135,1.0415,-0.2355,1.202
1.137,1.9145,0.778,-1.5255,0.1795,1.3465,-1.2055,-0.745,0.081,0.8445,1.281,0.9565,1.093,-0.2225,1.246
1.17,1.9325,0.763,-1.551,0.203,1.348,-1.3095,-0.791,0.0515,0.853,1.3165,1.001,1.1345,-0.213,1.287
1.1995,1.938,0.7395,-1.569,0.23,1.339,-1.3895,-0.8465,0.016,0.8595,1.3545,1.047,1.1755,-0.213,1.3315
1.2435,1.953,0.71,-1.5985,0.2665,1.3315,-1.4695,-0.884,-0.007,0.8695,1.3945,1.092,1.2235,-0.2125,1.3875
1.2865,1.97,0.6835,-1.628,0.301,1.327,-1.5515,-0.907,-0.0205,0.8855,1.436,1.1405,1.279,-0.2095,1.4375
1.321,1.977,0.6565,-1.649,0.332,1.317,-1.613,-0.9265,-0.031,0.8975,1.47,1.178,1.3225,-0.211,1.482
1.347,1.9795,0.6335,-1.6635,0.3565,1.3065,-1.684,-0.951,-0.032,0.9145,1.5005,1.2115,1.356,-0.2135,1.5155
1.38,1.9765,0.597,-1.678,0.3915,1.287,-1.7455,-0.943,-0.007,0.954,1.546,1.2535,1.4035,-0.22,1.544
1.4145,1.971,0.557,-1.6925,0.4285,1.264,-1.7685,-0.904,0.0285,0.987,1.583,1.287,1.4425,-0.2295,1.551
1.44,1.9705,0.531,-1.7055,0.4545,1.251,-1.766,-0.861,0.0655,1.0105,1.6045,1.3065,1.4665,-0.2315,1.526
1.4635,1.978,0.515,-1.7205,0.474,1.2465,-1.755,-0.8275,0.0865,1.0175,1.619,1.326,1.4865,-0.23,1.5125
1.4785,1.9845,0.5065,-1.7315,0.486,1.2455,-1.738,-0.785,0.12,1.039,1.643,1.352,1.51,-0.2265,1.4835
1.496,1.999,0.503,-1.7475,0.496,1.251,-1.707,-0.739,0.1645,1.0695,1.6635,1.366,1.531,-0.221,1.4425
1.5045,1.9915,0.4875,-1.748,0.5085,1.2395,-1.6725,-0.711,0.164,1.047,1.6445,1.3545,1.5215,-0.226,1.428
1.4995,1.9535,0.4545,-1.7265,0.522,1.2045,-1.6235,-0.658,0.1745,1.028,1.6235,1.3375,1.505,-0.2465,1.407
1.4995,1.915,0.416,-1.7075,0.5415,1.166,-1.5655,-0.601,0.1965,1.0275,1.6175,1.3285,1.5005,-0.276,1.381
1.5065,1.858,0.3525,-1.682,0.5765,1.1055,-1.5045,-0.5535,0.184,0.9915,1.595,1.317,1.485,-0.3175,1.369
1.491,1.838,0.3475,-1.6645,0.5715,1.0925,-1.458,-0.5445,0.1135,0.8895,1.5195,1.2685,1.4375,-0.335,1.3585
1.47,1.841,0.3715,-1.6555,0.549,1.1065,-1.4115,-0.5575,0.0205,0.7635,1.4285,1.209,1.383,-0.333,1.3515
1.444,1.805,0.3615,-1.6245,0.541,1.0835,-1.324,-0.554,-0.0955,0.5925,1.3105,1.1375,1.3055,-0.3495,1.347
1.413,1.7535,0.341,-1.5835,0.536,1.0475,-1.2395,-0.536,-0.1825,0.4395,1.191,1.059,1.2215,-0.3815,1.3395
1.386,1.7175,0.3325,-1.552,0.5265,1.0255,-1.166,-0.5325,-0.2395,0.3285,1.0975,0.9955,1.1485,-0.407,1.322
1.3395,1.689,0.35,-1.5145,0.4945,1.02,-1.1015,-0.549,-0.3195,0.201,0.9895,0.918,1.06,-0.4175,1.2955
1.313,1.676,0.3635,-1.4945,0.4745,1.02,-1.061,-0.5485,-0.3695,0.108,0.9025,0.853,0.9995,-0.422,1.2755
1.294,1.6775,0.3845,-1.486,0.4545,1.0315,-1.024,-0.563,-0.4365,0.0,0.8055,0.785,0.935,-0.424,1.261
1.251,1.6705,0.42,-1.461,0.4155,1.0455,-0.9805,-0.6025,-0.5315,-0.1285,0.693,0.705,0.847,-0.414,1.242
1.2035,1.668,0.465,-1.436,0.369,1.0665,-0.94,-0.653,-0.6135,-0.2245,0.6085,0.645,0.7805,-0.3965,1.2175
1.151,1.6435,0.493,-1.3975,0.329,1.0685,-0.892,-0.6905,-0.6635,-0.2865,0.544,0.5875,0.7185,-0.4005,1.1965
1.118,1.6315,0.5135,-1.3745,0.302,1.073,-0.8375,-0.7035,-0.675,-0.3215,0.493,0.5345,0.668,-0.414,1.1665
1.0975,1.624,0.527,-1.361,0.285,1.0755,-0.759,-0.6615,-0.6415,-0.324,0.459,0.4925,0.6275,-0.418,1.1085
1.0695,1.605,0.536,-1.3375,0.2665,1.071,-0.676,-0.5945,-0.5915,-0.3215,0.429,0.454,0.584,-0.403,1.0555
1.0455,1.6055,0.56,-1.325,0.2425,1.083,-0.6115,-0.5575,-0.5575,-0.319,0.4065,0.424,0.5505,-0.3775,1.0105
1.016,1.585,0.5695,-1.3005,0.223,1.0775,-0.5355,-0.5105,-0.518,-0.308,0.3895,0.396,0.5165,-0.3735,0.962
0.9935,1.5835,0.5905,-1.2885,0.201,1.0875,-0.47,-0.476,-0.492,-0.311,0.361,0.36,0.4825,-0.375,0.9255
0.9615,1.593,0.632,-1.2775,0.1645,1.1125,-0.411,-0.4505,-0.4775,-0.326,0.3185,0.3085,0.438,-0.37,0.887
0.932,1.561,0.6295,-1.2465,0.151,1.0955,-0.3415,-0.3995,-0.441,-0.325,0.291,0.2655,0.3945,-0.39,0.837
0.9125,1.5185,0.607,-1.2155,0.1525,1.063,-0.2705,-0.339,-0.395,-0.31,0.2735,0.2325,0.3575,-0.419,0.7845
0.8795,1.506,0.627,-1.193,0.126,1.067,-0.204,-0.285,-0.349,-0.291,0.263,0.208,0.3275,-0.418,0.734
0.8485,1.5025,0.6545,-1.1755,0.097,1.0785,-0.1525,-0.241,-0.308,-0.2695,0.263,0.1935,0.3045,-0.411,0.6915
0.8135,1.5045,0.6915,-1.159,0.061,1.0985,-0.117,-0.1915,-0.2695,-0.2515,0.2565,0.1745,0.278,-0.3995,0.651
0.781,1.5175,0.737,-1.1495,0.022,1.1275,-0.078,-0.1495,-0.23,-0.2305,0.2565,0.1625,0.2595,-0.378,0.611
0.7595,1.5055,0.7465,-1.1325,0.0065,1.126,-0.0305,-0.1015,-0.1885,-0.206,0.261,0.1545,0.2455,-0.3795,0.5685
0.746,1.5055,0.76,-1.1255,-0.0075,1.133,0.002,-0.061,-0.155,-0.1865,0.262,0.1445,0.237,-0.3835,0.5295
0.7355,1.5145,0.7795,-1.125,-0.022,1.1475,0.036,-0.03,-0.128,-0.171,0.263,0.1315,0.226,-0.3795,0.497
0.731,1.5135,0.7825,-1.1225,-0.026,1.148,0.0655,0.0145,-0.091,-0.148,0.2695,0.126,0.2205,-0.377,0.4685
0.7265,1.528,0.802,-1.1275,-0.038,1.1655,0.077,0.042,-0.066,-0.132,0.2765,0.125,0.222,-0.369,0.446
0.7145,1.5395,0.8255,-1.127,-0.0555,1.183,0.094,0.069,-0.0455,-0.122,0.275,0.1135,0.2155,-0.3665,0.4235
0.706,1.526,0.8205,-1.116,-0.0575,1.1735,0.1185,0.1085,-0.014,-0.1,0.281,0.111,0.211,-0.3795,0.399
0.701,1.504,0.8035,-1.102,-0.052,1.154,0.141,0.146,0.022,-0.0735,0.294,0.112,0.207,-0.3965,0.3665
0.7,1.51,0.8105,-1.105,-0.0555,1.1605,0.153,0.1705,0.0455,-0.0595,0.295,0.104,0.202,-0.402,0.344
0.701,1.516,0.816,-1.1085,-0.058,1.1665,0.166,0.1855,0.0505,-0.06,0.2925,0.098,0.195,-0.4045,0.329
0.6955,1.512,0.8175,-1.104,-0.0615,1.165,0.176,0.1985,0.0595,-0.055,0.2945,0.098,0.1895,-0.403,0.314
0.6945,1.525,0.831,-1.1095,-0.0685,1.1785,0.1765,0.21,0.074,-0.0415,0.301,0.101,0.1915,-0.389,0.3
0.7,1.521,0.8215,-1.1105,-0.061,1.1715,0.1795,0.2225,0.0885,-0.029,0.311,0.1085,0.197,-0.3995,0.2885
0.697,1.507,0.8105,-1.102,-0.057,1.159,0.1955,0.239,0.1035,-0.0165,0.321,0.118,0.2,-0.4155,0.277
0.6975,1.5125,0.815,-1.105,-0.059,1.164,0.201,0.2495,0.1125,-0.0085,0.3265,0.117,0.2,-0.407,0.2625
0.7005,1.529,0.829,-1.1145,-0.0645,1.179,0.198,0.259,0.1235,-0.001,0.329,0.1155,0.203,-0.399,0.2505
0.697,1.5305,0.8335,-1.1135,-0.0685,1.182,0.214,0.2725,0.1355,0.0085,0.3315,0.1145,0.2015,-0.4,0.2375
0.699,1.5175,0.819,-1.108,-0.06,1.1685,0.225,0.2815,0.142,0.0125,0.333,0.112,0.2,-0.4135,0.2285
0.701,1.516,0.816,-1.1085,-0.058,1.1665,0.229,0.292,0.1515,0.0205,0.3385,0.115,0.2035,-0.418,0.2185
0.693,1.509,0.8165,-1.1015,-0.062,1.163,0.235,0.2955,0.155,0.024,0.3375,0.1145,0.202,-0.4155,0.21
0.6905,1.505,0.815,-1.098,-0.0625,1.1605,0.2445,0.297,0.159,0.0255,0.3365,0.1145,0.2025,-0.4245,0.2035
0.702,1.5155,0.8145,-1.109,-0.0565,1.165,0.254,0.3155,0.1715,0.035,0.342,0.121,0.2075,-0.424,0.196
0.706,1.5155,0.8105,-1.1105,-0.0525,1.1635,0.257,0.325,0.179,0.0415,0.3455,0.1255,0.2105,-0.415,0.1915
0.707,1.5185,0.812,-1.113,-0.0525,1.1655,0.2545,0.327,0.181,0.044,0.3465,0.126,0.214,-0.4185,0.1905
0.717,1.5295,0.8125,-1.1235,-0.048,1.171,0.2585,0.335,0.185,0.044,0.349,0.1265,0.2185,-0.4225,0.1935
0.7125,1.5335,0.8215,-1.1225,-0.055,1.1775,0.264,0.3345,0.1875,0.0455,0.3495,0.1235,0.218,-0.423,0.1905
0.704,1.5305,0.827,-1.1175,-0.0615,1.179,0.262,0.3335,0.1895,0.0465,0.3465,0.119,0.216,-0.419,0.1875
0.7015,1.517,0.816,-1.109,-0.0575,1.1665,0.2695,0.337,0.1925,0.0485,0.349,0.1195,0.2125,-0.4195,0.1805
0.696,1.504,0.8085,-1.1,-0.0565,1.1565,0.281,0.344,0.1965,0.0535,0.352,0.121,0.21,-0.428,0.177
0.704,1.5055,0.802,-1.105,-0.049,1.154,0.2765,0.3465,0.1995,0.056,0.3535,0.121,0.2115,-0.433,0.178
0.7135,1.526,0.813,-1.1195,-0.05,1.1695,0.2725,0.3435,0.198,0.054,0.352,0.1165,0.2115,-0.4245,0.1725
0.7135,1.5385,0.8255,-1.126,-0.056,1.1825,0.277,0.3505,0.202,0.058,0.3525,0.116,0.2105,-0.4155,0.174
0.7135,1.528,0.815,-1.1205,-0.051,1.172,0.278,0.355,0.205,0.0615,0.3545,0.118,0.2095,-0.431,0.1705
0.712,1.528,0.817,-1.12,-0.0525,1.1725,0.2765,0.35,0.2015,0.06,0.3535,0.116,0.2085,-0.428,0.1675
0.711,1.5125,0.8025,-1.112,-0.046,1.1575,0.282,0.359,0.212,0.07,0.361,0.123,0.207,-0.431,0.1695
0.7185,1.505,0.787,-1.112,-0.0345,1.146,0.2885,0.369,0.2185,0.0765,0.3665,0.1285,0.207,-0.4495,0.1675
0.719,1.522,0.803,-1.1205,-0.0425,1.1625,0.284,0.365,0.2145,0.0725,0.3625,0.124,0.2075,-0.4385,0.1675
0.7125,1.5095,0.7975,-1.111,-0.0425,1.154,0.291,0.366,0.2175,0.0745,0.363,0.1255,0.2065,-0.438,0.1715
0.7175,1.5245,0.8075,-1.121,-0.0455,1.1665,0.2855,0.363,0.2145,0.071,0.3595,0.121,0.2065,-0.4325,0.176
0.715,1.5355,0.8205,-1.125,-0.053,1.178,0.28,0.36,0.2105,0.0665,0.354,0.1155,0.2075,-0.4265,0.1725
0.7135,1.535,0.8215,-1.124,-0.054,1.1785,0.281,0.3595,0.208,0.068,0.356,0.117,0.208,-0.424,0.171
0.716,1.5265,0.8105,-1.121,-0.0475,1.1685,0.2775,0.356,0.209,0.071,0.36,0.122,0.2095,-0.433,0.1625
0.7125,1.5045,0.7925,-1.1085,-0.0405,1.149,0.287,0.361,0.215,0.0765,0.3655,0.1265,0.207,-0.4465,0.157
0.7195,1.515,0.796,-1.117,-0.0385,1.156,0.288,0.369,0.2195,0.0795,0.3675,0.127,0.209,-0.4435,0.153
0.7245,1.537,0.813,-1.1305,-0.0445,1.175,0.2875,0.368,0.2175,0.079,0.366,0.123,0.2115,-0.4345,0.141
0.718,1.5735,0.856,-1.1455,-0.0695,1.215,0.276,0.349,0.201,0.062,0.3495,0.106,0.209,-0.409,0.143
0.719,1.5745,0.856,-1.1465,-0.069,1.2155,0.2765,0.3485,0.198,0.059,0.348,0.1035,0.206,-0.4115,0.143
0.7265,1.526,0.8,-1.1265,-0.037,1.163,0.294,0.374,0.22,0.0825,0.3685,0.122,0.206,-0.4415,0.136
0.7275,1.4995,0.772,-1.1135,-0.0225,1.136,0.296,0.384,0.2325,0.0925,0.3785,0.13,0.208,-0.4535,0.1335
0.7275,1.5275,0.8,-1.1275,-0.0365,1.164,0.287,0.377,0.2235,0.085,0.3715,0.121,0.2085,-0.432,0.135
0.7345,1.566,0.832,-1.15,-0.049,1.199,0.273,0.363,0.2095,0.07,0.3565,0.106,0.2075,-0.409,0.138
0.7305,1.5595,0.8295,-1.145,-0.05,1.1945,0.274,0.3605,0.2065,0.0685,0.355,0.1035,0.2075,-0.42,0.1415
0.7255,1.529,0.804,-1.127,-0.0395,1.1665,0.2895,0.371,0.2165,0.08,0.3645,0.115,0.2065,-0.4375,0.1445
0.7295,1.5335,0.8045,-1.1315,-0.0375,1.169,0.293,0.3655,0.214,0.077,0.3605,0.11,0.2035,-0.4295,0.147
0.726,1.5565,0.831,-1.1415,-0.0525,1.194,0.2865,0.361,0.2085,0.0705,0.3535,0.1,0.2015,-0.4145,0.1465
0.733,1.563,0.8305,-1.148,-0.049,1.197,0.2845,0.368,0.2145,0.075,0.356,0.103,0.2055,-0.4115,0.144
0.736,1.566,0.8305,-1.151,-0.0475,1.1985,0.283,0.368,0.215,0.0755,0.357,0.105,0.21,-0.409,0.148
0.729,1.572,0.8435,-1.1505,-0.0575,1.208,0.284,0.3645,0.213,0.075,0.3565,0.1055,0.209,-0.407,0.148
0.73,1.564,0.8345,-1.147,-0.0525,1.1995,0.288,0.3705,0.2165,0.079,0.3585,0.1065,0.208,-0.4065,0.1465
0.732,1.5485,0.817,-1.1405,-0.0425,1.183,0.296,0.3755,0.224,0.084,0.3645,0.11,0.209,-0.41,0.1465
0.724,1.528,0.8045,-1.126,-0.0405,1.1665,0.305,0.3795,0.228,0.091,0.37,0.1135,0.207,-0.43,0.145
0.7145,1.5155,0.8015,-1.115,-0.0435,1.1585,0.306,0.3825,0.227,0.0875,0.366,0.1115,0.202,-0.445,0.1445
0.71,1.5205,0.811,-1.1155,-0.0505,1.166,0.3025,0.373,0.219,0.0795,0.3585,0.1055,0.1975,-0.4395,0.141
0.718,1.54,0.8225,-1.129,-0.0525,1.1815,0.2985,0.3715,0.216,0.0775,0.3555,0.102,0.201,-0.421,0.1425
0.7295,1.5615,0.8325,-1.1455,-0.052,1.197,0.297,0.3785,0.222,0.0805,0.358,0.102,0.2045,-0.4105,0.1465
0.7255,1.5645,0.839,-1.145,-0.057,1.202,0.2925,0.379,0.2225,0.0815,0.358,0.101,0.2025,-0.4145,0.1405
0.7195,1.5565,0.8375,-1.138,-0.0595,1.1975,0.2965,0.3745,0.2225,0.0815,0.358,0.102,0.2035,-0.4185,0.1345
0.715,1.5495,0.835,-1.1325,-0.06,1.1925,0.305,0.3735,0.2215,0.083,0.36,0.105,0.2045,-0.4175,0.1375
0.72,1.5585,0.839,-1.139,-0.06,1.199,0.299,0.3815,0.225,0.086,0.363,0.109,0.206,-0.411,0.138
0.728,1.5585,0.8315,-1.143,-0.052,1.195,0.298,0.382,0.227,0.087,0.364,0.1095,0.2075,-0.418,0.142
0.735,1.547,0.8125,-1.141,-0.039,1.18,0.299,0.3825,0.2275,0.0875,0.366,0.1135,0.21,-0.4245,0.145
0.73,1.5345,0.805,-1.1325,-0.0375,1.17,0.299,0.382,0.232,0.0915,0.371,0.1175,0.2075,-0.427,0.139
0.722,1.5445,0.823,-1.133,-0.051,1.184,0.303,0.375,0.2255,0.086,0.367,0.113,0.2045,-0.419,0.14
0.727,1.565,0.838,-1.1465,-0.056,1.202,0.3015,0.372,0.219,0.0795,0.363,0.1085,0.2075,-0.412,0.144
0.7295,1.5635,0.834,-1.1465,-0.0525,1.199,0.3025,0.3805,0.2265,0.0875,0.369,0.112,0.2125,-0.413,0.1425
0.7345,1.5725,0.838,-1.1535,-0.052,1.2055,0.297,0.382,0.225,0.0865,0.368,0.1105,0.216,-0.403,0.1425
0.736,1.5805,0.845,-1.1585,-0.0545,1.213,0.291,0.3785,0.2215,0.0825,0.364,0.1055,0.2145,-0.3985,0.1375
0.7455,1.571,0.826,-1.158,-0.0405,1.1985,0.294,0.384,0.228,0.0895,0.3715,0.1115,0.2175,-0.404,0.1375
0.751,1.5635,0.813,-1.1575,-0.031,1.1885,0.295,0.386,0.23,0.0915,0.3725,0.1125,0.2195,-0.41,0.1455
0.7385,1.583,0.845,-1.161,-0.0535,1.214,0.2905,0.3825,0.225,0.088,0.364,0.106,0.2205,-0.3975,0.1385
0.734,1.595,0.8615,-1.1645,-0.064,1.2285,0.2835,0.3735,0.216,0.0815,0.358,0.098,0.2195,-0.384,0.132
0.731,1.5815,0.851,-1.156,-0.06,1.2165,0.287,0.374,0.218,0.081,0.358,0.0975,0.221,-0.3945,0.1345
0.7255,1.5645,0.84,-1.145,-0.0575,1.2025,0.2965,0.3875,0.2305,0.093,0.3685,0.105,0.2215,-0.402,0.1325
0.725,1.5345,0.8105,-1.1295,-0.043,1.173,0.3035,0.398,0.24,0.103,0.3795,0.116,0.2205,-0.4135,0.131
0.7145,1.5335,0.8195,-1.124,-0.0525,1.177,0.305,0.3925,0.2335,0.0975,0.374,0.1135,0.2175,-0.4155,0.1305
0.7075,1.5345,0.8275,-1.121,-0.06,1.181,0.3045,0.391,0.2305,0.096,0.3735,0.1125,0.2135,-0.4175,0.1345
0.7145,1.524,0.8105,-1.1195,-0.0485,1.1675,0.309,0.392,0.236,0.102,0.383,0.12,0.2185,-0.43,0.1395
0.7125,1.546,0.834,-1.1295,-0.061,1.1905,0.3005,0.3785,0.2245,0.0935,0.3725,0.11,0.218,-0.4135,0.133
0.7175,1.5625,0.8455,-1.14,-0.0645,1.204,0.2955,0.381,0.2235,0.092,0.3685,0.1065,0.219,-0.403,0.133
0.7235,1.5615,0.8385,-1.1425,-0.058,1.2005,0.3005,0.3915,0.232,0.096,0.374,0.11,0.218,-0.4065,0.1335
0.722,1.5575,0.836,-1.1395,-0.0575,1.197,0.307,0.3865,0.2285,0.095,0.3735,0.1105,0.2155,-0.4085,0.1315
0.7215,1.5555,0.8345,-1.1385,-0.0565,1.195,0.3145,0.3885,0.23,0.1005,0.3785,0.1135,0.2155,-0.413,0.134
0.7205,1.5445,0.825,-1.1325,-0.0525,1.185,0.311,0.3945,0.2395,0.108,0.3845,0.117,0.216,-0.4235,0.1365
0.723,1.5275,0.805,-1.125,-0.041,1.1665,0.3115,0.4045,0.248,0.114,0.3895,0.121,0.218,-0.4405,0.1355
0.727,1.525,0.7985,-1.126,-0.036,1.162,0.316,0.4105,0.2475,0.111,0.388,0.1195,0.214,-0.4305,0.1325
0.7245,1.5375,0.8135,-1.131,-0.0445,1.1755,0.3075,0.3995,0.239,0.103,0.3795,0.112,0.213,-0.415,0.132
0.719,1.5695,0.8515,-1.144,-0.0665,1.2105,0.2925,0.385,0.2235,0.0885,0.363,0.0955,0.212,-0.4015,0.129
0.7175,1.5845,0.8675,-1.151,-0.0755,1.2265,0.29,0.382,0.218,0.084,0.355,0.0885,0.211,-0.3955,0.131
0.7155,1.5665,0.851,-1.141,-0.068,1.209,0.2925,0.384,0.225,0.0905,0.36,0.092,0.2125,-0.407,0.128
0.7165,1.5625,0.8465,-1.1395,-0.0655,1.2045,0.297,0.3855,0.225,0.088,0.3605,0.0925,0.209,-0.4035,0.119
0.7185,1.56,0.8415,-1.139,-0.062,1.201,0.3025,0.389,0.2265,0.09,0.361,0.0945,0.208,-0.401,0.1235
0.7205,1.5495,0.8295,-1.135,-0.055,1.19,0.3025,0.3895,0.2305,0.0955,0.3655,0.0995,0.212,-0.401,0.1375
0.726,1.5555,0.83,-1.141,-0.0525,1.1935,0.304,0.3925,0.2325,0.0985,0.369,0.1025,0.213,-0.402,0.135
0.727,1.576,0.85,-1.1515,-0.062,1.2135,0.3,0.3945,0.2295,0.0965,0.368,0.099,0.2105,-0.392,0.1305
0.726,1.5895,0.864,-1.158,-0.069,1.227,0.2845,0.3855,0.2235,0.0915,0.3665,0.0965,0.2125,-0.3845,0.13
0.729,1.5795,0.851,-1.1545,-0.0615,1.2155,0.287,0.3885,0.2275,0.095,0.3695,0.1,0.213,-0.3895,0.133
0.7285,1.566,0.838,-1.1475,-0.0545,1.202,0.299,0.3975,0.2335,0.099,0.3705,0.0995,0.2105,-0.3895,0.135
0.723,1.569,0.8465,-1.146,-0.062,1.2075,0.2985,0.391,0.2285,0.0995,0.3715,0.0995,0.21,-0.386,0.124
0.724,1.5775,0.854,-1.1505,-0.065,1.216,0.3025,0.396,0.2325,0.1025,0.376,0.104,0.211,-0.3785,0.118
0.729,1.552,0.8235,-1.1405,-0.0475,1.188,0.3115,0.405,0.2415,0.109,0.3835,0.1115,0.208,-0.4135,0.1185
0.727,1.545,0.8185,-1.136,-0.046,1.182,0.311,0.4015,0.2385,0.1085,0.383,0.11,0.205,-0.4305,0.117
0.72,1.557,0.8375,-1.1385,-0.059,1.1975,0.3055,0.408,0.2435,0.1105,0.3825,0.107,0.2065,-0.4105,0.107
0.713,1.5525,0.8405,-1.133,-0.064,1.1965,0.31,0.407,0.243,0.1115,0.383,0.109,0.2035,-0.402,0.1035
0.7125,1.5535,0.8415,-1.133,-0.0645,1.1975,0.313,0.4065,0.243,0.1105,0.3835,0.11,0.2045,-0.4085,0.1065
0.7085,1.541,0.833,-1.1245,-0.0625,1.187,0.318,0.412,0.248,0.1175,0.3915,0.1185,0.206,-0.4255,0.1025
0.7175,1.5565,0.8395,-1.137,-0.061,1.1985,0.3155,0.407,0.2425,0.112,0.387,0.114,0.209,-0.413,0.0995
0.731,1.573,0.8425,-1.152,-0.056,1.208,0.3105,0.4105,0.2455,0.1115,0.3845,0.111,0.2175,-0.406,0.1015
0.728,1.567,0.839,-1.1475,-0.0555,1.2035,0.3135,0.4155,0.248,0.115,0.3865,0.113,0.2185,-0.4095,0.108
0.728,1.571,0.843,-1.1495,-0.0575,1.2075,0.3155,0.419,0.251,0.1165,0.3865,0.113,0.219,-0.399,0.1105
0.727,1.575,0.8485,-1.151,-0.061,1.212,0.317,0.4205,0.2525,0.1185,0.3885,0.1155,0.2205,-0.3915,0.11
0.73,1.5745,0.845,-1.1525,-0.0575,1.21,0.317,0.419,0.2515,0.1175,0.389,0.1145,0.2215,-0.3815,0.115
0.7265,1.5625,0.836,-1.144,-0.055,1.1995,0.3185,0.423,0.256,0.122,0.3925,0.1165,0.223,-0.3885,0.1185
0.7205,1.556,0.836,-1.138,-0.058,1.1965,0.3205,0.423,0.256,0.1225,0.392,0.115,0.221,-0.3985,0.1155
0.7235,1.578,0.8555,-1.1505,-0.0665,1.217,0.315,0.4125,0.2485,0.114,0.383,0.1045,0.2185,-0.377,0.116
0.7255,1.5945,0.8695,-1.16,-0.0725,1.2325,0.304,0.409,0.243,0.109,0.3775,0.0965,0.22,-0.3675,0.1165
0.727,1.5865,0.86,-1.1565,-0.067,1.2235,0.3085,0.4215,0.25,0.114,0.382,0.0975,0.2215,-0.3775,0.113
0.7255,1.57,0.845,-1.1475,-0.06,1.2075,0.3195,0.4275,0.256,0.119,0.3855,0.0985,0.22,-0.3905,0.111
0.732,1.558,0.826,-1.145,-0.0475,1.192,0.313,0.4175,0.2525,0.119,0.3835,0.098,0.2195,-0.396,0.1115
0.732,1.558,0.8265,-1.145,-0.0475,1.1925,0.3095,0.4185,0.2545,0.121,0.3855,0.1045,0.2235,-0.395,0.112
0.726,1.556,0.83,-1.141,-0.0525,1.1935,0.3145,0.414,0.2515,0.1175,0.384,0.104,0.2225,-0.4005,0.11
0.7235,1.565,0.842,-1.144,-0.0595,1.204,0.312,0.4075,0.2445,0.11,0.3755,0.0975,0.2185,-0.3885,0.109
0.719,1.5685,0.85,-1.1435,-0.0655,1.2095,0.3135,0.421,0.251,0.117,0.3815,0.1025,0.2205,-0.3825,0.1055
0.7155,1.554,0.8385,-1.1345,-0.062,1.1965,0.315,0.427,0.255,0.1205,0.386,0.105,0.22,-0.3915,0.103
0.712,1.558,0.8465,-1.135,-0.0675,1.2025,0.317,0.4355,0.2605,0.1225,0.384,0.1055,0.221,-0.3915,0.098
0.7125,1.5725,0.8605,-1.1425,-0.074,1.2165,0.319,0.433,0.26,0.12,0.38,0.099,0.2145,-0.381,0.0895
0.7175,1.5745,0.858,-1.146,-0.0705,1.2165,0.316,0.4275,0.2555,0.118,0.3795,0.097,0.211,-0.3805,0.0865
0.7245,1.579,0.855,-1.152,-0.0655,1.217,0.315,0.4345,0.263,0.125,0.3845,0.1055,0.2145,-0.3875,0.082
0.724,1.5675,0.844,-1.146,-0.0605,1.206,0.3205,0.439,0.2665,0.1275,0.386,0.1075,0.2105,-0.4035,0.081
0.7275,1.5425,0.816,-1.135,-0.0445,1.1795,0.3315,0.448,0.2775,0.1385,0.3995,0.1185,0.2115,-0.412,0.079
0.7255,1.56,0.835,-1.1425,-0.055,1.1975,0.325,0.449,0.278,0.1385,0.398,0.116,0.2135,-0.3895,0.0795
0.72,1.588,0.8685,-1.154,-0.0745,1.2285,0.3215,0.4405,0.2655,0.1245,0.385,0.103,0.209,-0.38,0.082
0.7275,1.6035,0.8765,-1.1655,-0.0745,1.2405,0.3205,0.435,0.263,0.123,0.382,0.1,0.212,-0.369,0.0845
0.729,1.6005,0.8715,-1.1645,-0.0715,1.236,0.319,0.4455,0.2685,0.1285,0.3855,0.1045,0.219,-0.3705,0.0875
0.729,1.5915,0.863,-1.16,-0.0675,1.2275,0.3115,0.4505,0.2705,0.127,0.387,0.107,0.218,-0.3695,0.0865
0.7265,1.596,0.87,-1.161,-0.072,1.233,0.3045,0.4445,0.266,0.124,0.3825,0.1045,0.216,-0.3615,0.0885
0.7225,1.593,0.871,-1.158,-0.0745,1.232,0.321,0.4505,0.2725,0.13,0.389,0.1095,0.216,-0.3705,0.0865
0.7295,1.599,0.87,-1.164,-0.0705,1.2345,0.329,0.455,0.278,0.134,0.3935,0.114,0.217,-0.3675,0.086
0.733,1.595,0.8625,-1.164,-0.065,1.229,0.33,0.457,0.2815,0.138,0.3975,0.1185,0.2215,-0.378,0.0805
0.733,1.583,0.851,-1.158,-0.059,1.217,0.332,0.4625,0.2875,0.1455,0.404,0.1265,0.226,-0.3845,0.0755
0.733,1.5895,0.857,-1.1615,-0.062,1.2235,0.3245,0.4565,0.2815,0.1405,0.4,0.123,0.2265,-0.376,0.0815
0.7285,1.597,0.8685,-1.163,-0.07,1.233,0.3195,0.4505,0.276,0.1345,0.397,0.119,0.2265,-0.3715,0.0795
0.733,1.6035,0.8705,-1.168,-0.069,1.237,0.326,0.4645,0.2845,0.1415,0.3995,0.1235,0.2285,-0.3635,0.07
0.7395,1.604,0.8655,-1.1715,-0.0635,1.235,0.325,0.4765,0.292,0.1455,0.402,0.1255,0.232,-0.36,0.0655
0.741,1.609,0.869,-1.175,-0.064,1.2395,0.32,0.4755,0.2925,0.146,0.4025,0.1245,0.2335,-0.358,0.064
0.7415,1.6155,0.8745,-1.1785,-0.067,1.2455,0.326,0.475,0.2935,0.1475,0.4045,0.1265,0.234,-0.3555,0.0585
0.7395,1.605,0.8665,-1.172,-0.064,1.236,0.3355,0.484,0.2985,0.1505,0.4075,0.129,0.235,-0.364,0.0525
0.7415,1.595,0.854,-1.168,-0.0565,1.225,0.34,0.4915,0.3045,0.1545,0.4115,0.1325,0.238,-0.37,0.0485
0.7475,1.5855,0.839,-1.1665,-0.046,1.2125,0.342,0.491,0.303,0.154,0.413,0.135,0.2415,-0.38,0.0545
0.75,1.602,0.8525,-1.176,-0.0515,1.2275,0.3365,0.492,0.3005,0.1515,0.4095,0.132,0.243,-0.372,0.059
0.7445,1.633,0.889,-1.1885,-0.0725,1.261,0.3285,0.4925,0.304,0.1525,0.407,0.1275,0.246,-0.3405,0.054
0.737,1.6155,0.879,-1.1765,-0.071,1.2475,0.331,0.4985,0.306,0.1535,0.4085,0.128,0.245,-0.35,0.052
0.733,1.5845,0.8515,-1.159,-0.0595,1.218,0.3405,0.503,0.3075,0.156,0.413,0.1305,0.239,-0.368,0.062
0.7315,1.6025,0.871,-1.167,-0.07,1.237,0.3385,0.502,0.31,0.156,0.412,0.128,0.24,-0.3505,0.0645
0.7235,1.6135,0.891,-1.1685,-0.084,1.2525,0.341,0.503,0.3095,0.1545,0.41,0.125,0.2395,-0.3465,0.0545
0.725,1.609,0.885,-1.167,-0.08,1.247,0.343,0.503,0.3085,0.1545,0.4105,0.124,0.239,-0.35,0.052
0.7275,1.6155,0.8885,-1.1715,-0.0805,1.252,0.3415,0.507,0.312,0.158,0.4125,0.1255,0.2415,-0.346,0.0485
0.721,1.6105,0.89,-1.166,-0.085,1.2505,0.349,0.5085,0.315,0.1605,0.4145,0.128,0.241,-0.364,0.039
0.7265,1.606,0.8805,-1.166,-0.0775,1.2435,0.3455,0.515,0.316,0.157,0.41,0.1235,0.2365,-0.3695,0.037
0.723,1.603,0.881,-1.163,-0.0795,1.242,0.342,0.5185,0.316,0.156,0.407,0.1205,0.235,-0.3565,0.0345
0.7305,1.617,0.8875,-1.174,-0.079,1.2525,0.3465,0.5205,0.319,0.1585,0.4105,0.126,0.238,-0.344,0.033
0.7455,1.6365,0.891,-1.191,-0.073,1.264,0.3525,0.524,0.323,0.163,0.4155,0.1315,0.24,-0.3315,0.0365
0.7515,1.6485,0.8975,-1.2,-0.0735,1.2735,0.353,0.527,0.3245,0.1665,0.4185,0.1335,0.2435,-0.334,0.0295
0.753,1.6475,0.895,-1.2005,-0.071,1.2715,0.351,0.531,0.3255,0.165,0.418,0.1335,0.2445,-0.3375,0.036
0.7425,1.642,0.9,-1.192,-0.079,1.271,0.35,0.5285,0.325,0.1655,0.417,0.134,0.2395,-0.3315,0.035
0.739,1.6425,0.9045,-1.1905,-0.083,1.274,0.351,0.535,0.3265,0.1655,0.4175,0.1345,0.235,-0.332,0.029
0.7415,1.6435,0.9025,-1.1925,-0.081,1.2735,0.3515,0.5405,0.327,0.1645,0.4185,0.1375,0.2355,-0.3285,0.032
0.7425,1.656,0.914,-1.199,-0.086,1.2855,0.343,0.5345,0.329,0.1675,0.4225,0.1405,0.2395,-0.3175,0.032
0.7405,1.661,0.921,-1.2005,-0.0905,1.291,0.349,0.5265,0.324,0.164,0.4195,0.1375,0.2375,-0.311,0.0315
0.736,1.6585,0.923,-1.1975,-0.094,1.291,0.358,0.5345,0.3205,0.158,0.4135,0.1325,0.235,-0.3105,0.028
0.7305,1.656,0.926,-1.193,-0.098,1.291,0.354,0.535,0.3205,0.1545,0.411,0.131,0.234,-0.3095,0.0275
0.733,1.6565,0.924,-1.1945,-0.096,1.2905,0.356,0.533,0.319,0.152,0.408,0.128,0.2345,-0.3055,0.0235
0.7345,1.6595,0.925,-1.197,-0.0955,1.292,0.3605,0.538,0.323,0.158,0.412,0.1315,0.236,-0.311,0.0215
0.7275,1.6565,0.9295,-1.192,-0.101,1.2935,0.359,0.5395,0.3245,0.158,0.4115,0.131,0.236,-0.3145,0.021
0.7285,1.657,0.929,-1.193,-0.1005,1.293,0.3545,0.543,0.3255,0.158,0.412,0.13,0.2405,-0.3045,0.022
0.738,1.6585,0.9205,-1.198,-0.0915,1.2895,0.3555,0.5375,0.3265,0.1605,0.416,0.133,0.249,-0.2995,0.0285
0.74,1.6595,0.92,-1.1995,-0.09,1.2895,0.358,0.543,0.3285,0.161,0.417,0.134,0.255,-0.3065,0.0295
0.7355,1.6575,0.9225,-1.1965,-0.094,1.2905,0.3635,0.5545,0.3345,0.1665,0.422,0.1375,0.2555,-0.308,0.0255
0.7395,1.6575,0.9185,-1.1985,-0.09,1.2885,0.362,0.5535,0.336,0.169,0.4255,0.1405,0.2595,-0.3085,0.022
0.736,1.66,0.9245,-1.198,-0.0945,1.2925,0.3595,0.5495,0.3355,0.1695,0.426,0.1405,0.2595,-0.3015,0.019
0.7245,1.644,0.92,-1.1845,-0.098,1.2825,0.3705,0.5625,0.3425,0.1735,0.4295,0.14,0.2505,-0.3045,0.019
0.727,1.6325,0.906,-1.1795,-0.09,1.2695,0.377,0.5675,0.344,0.1735,0.4295,0.1405,0.245,-0.3175,0.0185
0.73,1.644,0.9145,-1.187,-0.0925,1.2795,0.372,0.553,0.333,0.163,0.419,0.1335,0.2405,-0.3145,0.019
0.7365,1.656,0.9195,-1.1965,-0.092,1.288,0.366,0.5535,0.3305,0.162,0.4185,0.1345,0.2455,-0.3065,0.024
0.738,1.651,0.9135,-1.1945,-0.088,1.2825,0.3705,0.5595,0.3345,0.1675,0.4235,0.143,0.244,-0.302,0.0215
0.73,1.647,0.9175,-1.1885,-0.094,1.2825,0.3715,0.556,0.33,0.165,0.4195,0.1415,0.238,-0.3025,0.017
0.735,1.629,0.8945,-1.182,-0.08,1.262,0.3795,0.573,0.3415,0.175,0.4305,0.1515,0.235,-0.316,0.012
0.738,1.6315,0.894,-1.185,-0.0785,1.263,0.388,0.577,0.3445,0.1765,0.4335,0.152,0.229,-0.326,0.01
0.74,1.6805,0.941,-1.2105,-0.101,1.311,0.3715,0.554,0.3245,0.157,0.415,0.136,0.231,-0.294,0.018
0.748,1.6945,0.947,-1.221,-0.0995,1.321,0.3545,0.561,0.328,0.1595,0.4195,0.1405,0.237,-0.267,0.0195
0.7445,1.7035,0.9595,-1.224,-0.1075,1.3315,0.354,0.558,0.323,0.1565,0.417,0.1375,0.236,-0.2645,0.01
0.7385,1.717,0.9795,-1.2275,-0.1205,1.3485,0.363,0.548,0.3135,0.1475,0.407,0.129,0.2305,-0.26,0.001
0.7355,1.708,0.973,-1.222,-0.119,1.3405,0.3685,0.552,0.3185,0.1515,0.411,0.133,0.231,-0.2595,0.0025
0.734,1.678,0.9445,-1.206,-0.1055,1.3115,0.3735,0.558,0.3255,0.1595,0.4195,0.141,0.2325,-0.2785,0.0045
0.7365,1.663,0.927,-1.1995,-0.0955,1.2955,0.3715,0.5625,0.3305,0.164,0.4245,0.1465,0.236,-0.287,0.005
0.7275,1.673,0.9465,-1.2,-0.11,1.31,0.367,0.5595,0.326,0.157,0.4185,0.1415,0.236,-0.276,0.001
0.725,1.6905,0.9665,-1.208,-0.121,1.3285,0.371,0.551,0.318,0.1505,0.4115,0.1365,0.233,-0.263,0.0005
0.7305,1.7115,0.9815,-1.221,-0.126,1.347,0.3645,0.543,0.3125,0.1465,0.4065,0.134,0.236,-0.248,0.008
0.7245,1.6985,0.9745,-1.2115,-0.125,1.337,0.367,0.5415,0.311,0.1445,0.405,0.1335,0.235,-0.254,0.007
0.719,1.693,0.9745,-1.206,-0.128,1.334,0.3665,0.5345,0.3015,0.1365,0.399,0.131,0.2335,-0.2515,0.009
0.7205,1.704,0.9845,-1.2125,-0.1325,1.3445,0.354,0.529,0.3005,0.135,0.398,0.129,0.2365,-0.246,0.0115
0.728,1.7025,0.9745,-1.215,-0.1235,1.3385,0.3645,0.529,0.3005,0.1365,0.4,0.1325,0.2375,-0.2565,0.013
0.729,1.693,0.964,-1.211,-0.1175,1.3285,0.366,0.538,0.3025,0.139,0.402,0.135,0.2375,-0.2615,0.014
0.7345,1.693,0.959,-1.214,-0.112,1.326,0.359,0.5305,0.3025,0.14,0.403,0.1365,0.2395,-0.2565,0.018
0.7405,1.6925,0.953,-1.2165,-0.1065,1.323,0.3675,0.527,0.3015,0.1425,0.4105,0.143,0.242,-0.257,0.021
0.739,1.684,0.9455,-1.2115,-0.1035,1.315,0.3775,0.535,0.3045,0.146,0.4135,0.1465,0.2405,-0.265,0.023
0.7325,1.6875,0.9555,-1.21,-0.1115,1.3215,0.37,0.528,0.299,0.1425,0.41,0.1435,0.2405,-0.2595,0.025
0.7295,1.688,0.959,-1.209,-0.115,1.324,0.3685,0.531,0.301,0.144,0.4115,0.146,0.2405,-0.2605,0.023
0.729,1.6725,0.9435,-1.2005,-0.1075,1.308,0.3805,0.532,0.3015,0.147,0.4155,0.1495,0.2375,-0.2725,0.0255
0.723,1.6765,0.9545,-1.2,-0.116,1.316,0.3685,0.5255,0.2965,0.145,0.415,0.149,0.239,-0.266,0.028
0.7295,1.7005,0.971,-1.215,-0.121,1.336,0.355,0.5155,0.289,0.1385,0.4105,0.1465,0.2445,-0.255,0.028
0.729,1.6885,0.9595,-1.209,-0.1155,1.3245,0.3545,0.508,0.2835,0.137,0.4105,0.1445,0.242,-0.266,0.029
0.7265,1.6775,0.952,-1.202,-0.113,1.315,0.351,0.5045,0.282,0.136,0.4085,0.144,0.2405,-0.273,0.0295
0.7275,1.6875,0.9605,-1.2075,-0.1165,1.324,0.3525,0.4985,0.28,0.138,0.413,0.146,0.2435,-0.259,0.026
0.7215,1.6785,0.9575,-1.2,-0.1185,1.3185,0.3565,0.493,0.276,0.1385,0.4155,0.1475,0.241,-0.256,0.0245
0.7245,1.666,0.9415,-1.195,-0.109,1.304,0.3545,0.4925,0.2755,0.1385,0.416,0.1495,0.243,-0.267,0.03
0.7265,1.6605,0.9345,-1.1935,-0.104,1.298,0.3605,0.4945,0.279,0.1465,0.423,0.1545,0.246,-0.281,0.035
0.7275,1.645,0.9185,-1.1865,-0.0955,1.282,0.368,0.4895,0.2795,0.15,0.427,0.161,0.244,-0.301,0.0325
0.727,1.6365,0.9095,-1.182,-0.0915,1.2735,0.3625,0.4865,0.277,0.1515,0.4305,0.167,0.2475,-0.3125,0.037
0.738,1.6775,0.94,-1.2075,-0.1015,1.309,0.3525,0.4845,0.2715,0.146,0.425,0.1615,0.252,-0.2895,0.045
0.7545,1.72,0.9665,-1.2375,-0.1065,1.3435,0.3395,0.47,0.2625,0.1365,0.4145,0.153,0.255,-0.264,0.0575
0.75,1.7275,0.978,-1.2385,-0.1145,1.353,0.3315,0.455,0.2515,0.1295,0.409,0.1475,0.255,-0.248,0.0705
0.7435,1.7275,0.9845,-1.235,-0.121,1.356,0.3315,0.4485,0.2425,0.1245,0.4045,0.143,0.253,-0.256,0.07
0.7465,1.7245,0.9785,-1.2355,-0.1165,1.3515,0.329,0.441,0.2395,0.126,0.4065,0.144,0.2525,-0.28,0.0705
0.7505,1.7115,0.962,-1.231,-0.106,1.337,0.327,0.437,0.241,0.1305,0.4125,0.148,0.256,-0.286,0.078
0.744,1.695,0.9515,-1.2195,-0.104,1.3235,0.331,0.438,0.2435,0.1345,0.4165,0.153,0.2585,-0.302,0.0795
0.7505,1.6825,0.933,-1.2165,-0.0915,1.308,0.3315,0.4385,0.2465,0.141,0.424,0.159,0.26,-0.2965,0.0845
0.7565,1.691,0.9345,-1.2235,-0.0895,1.313,0.3205,0.4335,0.2425,0.1375,0.4215,0.1575,0.2635,-0.2645,0.091
0.7545,1.714,0.96,-1.234,-0.103,1.337,0.309,0.418,0.2305,0.128,0.4135,0.1485,0.264,-0.242,0.09
0.757,1.7245,0.9675,-1.241,-0.1055,1.3465,0.312,0.4105,0.225,0.1275,0.412,0.145,0.2645,-0.2295,0.0965
0.745,1.716,0.971,-1.2305,-0.1135,1.344,0.3145,0.405,0.223,0.1275,0.4125,0.1455,0.2625,-0.2295,0.101
0.744,1.694,0.9505,-1.219,-0.1035,1.3225,0.312,0.4,0.22,0.126,0.4125,0.144,0.2615,-0.246,0.107
0.748,1.689,0.9415,-1.2185,-0.097,1.3155,0.312,0.399,0.218,0.1245,0.411,0.1395,0.2605,-0.257,0.107
0.738,1.6885,0.951,-1.2135,-0.107,1.3205,0.306,0.386,0.2095,0.12,0.4045,0.132,0.258,-0.262,0.1125
0.736,1.6805,0.945,-1.2085,-0.105,1.313,0.3035,0.382,0.208,0.1215,0.4045,0.132,0.2595,-0.271,0.1205
0.751,1.6785,0.928,-1.215,-0.0885,1.3035,0.3025,0.38,0.21,0.123,0.4075,0.134,0.2625,-0.274,0.121
0.76,1.679,0.9195,-1.22,-0.08,1.2995,0.3015,0.3785,0.2065,0.1225,0.407,0.133,0.264,-0.282,0.132
0.76,1.6855,0.926,-1.2225,-0.0835,1.306,0.3005,0.38,0.208,0.1235,0.4095,0.1335,0.2605,-0.275,0.131
0.764,1.6845,0.921,-1.2245,-0.079,1.3035,0.2945,0.371,0.206,0.123,0.41,0.1335,0.262,-0.27,0.1365
0.762,1.6795,0.918,-1.221,-0.0785,1.299,0.29,0.361,0.1975,0.12,0.405,0.1315,0.2625,-0.272,0.134
0.768,1.6815,0.9145,-1.225,-0.0735,1.2985,0.2855,0.355,0.192,0.117,0.402,0.129,0.259,-0.279,0.126
0.7765,1.686,0.91,-1.231,-0.067,1.298,0.2825,0.3565,0.199,0.1255,0.409,0.1325,0.2625,-0.281,0.128
0.7775,1.6905,0.9135,-1.234,-0.0685,1.3025,0.2755,0.3475,0.193,0.1205,0.4045,0.1275,0.261,-0.2635,0.1265
0.774,1.6855,0.9125,-1.23,-0.0695,1.2995,0.277,0.3345,0.1745,0.105,0.392,0.116,0.252,-0.282,0.1335
0.762,1.6765,0.915,-1.2195,-0.077,1.296,0.2805,0.334,0.1755,0.106,0.391,0.1145,0.2495,-0.301,0.139
0.758,1.6735,0.9155,-1.2155,-0.079,1.2945,0.282,0.3355,0.179,0.109,0.3935,0.1165,0.2505,-0.3055,0.144
0.7535,1.6615,0.9085,-1.2075,-0.0775,1.2855,0.2885,0.3385,0.1795,0.1105,0.3965,0.1175,0.249,-0.307,0.1455
0.749,1.6765,0.9275,-1.2125,-0.0895,1.302,0.2875,0.3335,0.177,0.111,0.3955,0.1145,0.25,-0.2855,0.1475
0.7615,1.6935,0.932,-1.2275,-0.0855,1.313,0.278,0.3275,0.1745,0.1085,0.393,0.1125,0.2515,-0.2905,0.1465
0.76,1.672,0.9125,-1.216,-0.0765,1.2925,0.2815,0.336,0.179,0.1125,0.3985,0.1195,0.2495,-0.3095,0.145
0.7505,1.6435,0.894,-1.197,-0.072,1.269,0.2955,0.341,0.183,0.1195,0.406,0.126,0.247,-0.333,0.147
0.7575,1.638,0.881,-1.1975,-0.062,1.2595,0.2915,0.333,0.1815,0.1205,0.4055,0.123,0.247,-0.337,0.1455
0.756,1.641,0.8855,-1.1985,-0.065,1.2635,0.288,0.326,0.174,0.1155,0.3985,0.116,0.2455,-0.324,0.1525
0.757,1.644,0.8875,-1.2005,-0.0655,1.266,0.2885,0.328,0.171,0.11,0.3955,0.1135,0.243,-0.322,0.156
0.755,1.6545,0.9,-1.205,-0.0725,1.2775,0.2845,0.318,0.166,0.1055,0.391,0.108,0.243,-0.308,0.156
0.756,1.632,0.876,-1.194,-0.06,1.254,0.2905,0.3185,0.1665,0.1095,0.3945,0.1095,0.2435,-0.324,0.162
0.7545,1.626,0.872,-1.19,-0.059,1.249,0.2835,0.3155,0.164,0.108,0.396,0.112,0.246,-0.3315,0.1645
0.748,1.629,0.8815,-1.1885,-0.067,1.2555,0.276,0.3105,0.1585,0.104,0.3895,0.1075,0.246,-0.3325,0.164
0.7605,1.6275,0.868,-1.194,-0.054,1.248,0.279,0.319,0.164,0.1085,0.3925,0.1095,0.25,-0.348,0.1635
0.7605,1.657,0.897,-1.209,-0.0685,1.2775,0.2665,0.3045,0.1515,0.0965,0.3805,0.0985,0.251,-0.331,0.164
0.756,1.658,0.903,-1.207,-0.074,1.2805,0.268,0.2935,0.141,0.0855,0.3705,0.089,0.2485,-0.3205,0.1655
0.7595,1.646,0.887,-1.203,-0.064,1.267,0.2725,0.2965,0.145,0.0905,0.3755,0.0935,0.251,-0.3265,0.1665
0.7555,1.6295,0.8745,-1.1925,-0.06,1.252,0.2675,0.3015,0.1485,0.093,0.377,0.0965,0.249,-0.338,0.1655
0.747,1.609,0.8625,-1.178,-0.058,1.236,0.2725,0.2985,0.1435,0.0895,0.3745,0.095,0.2455,-0.354,0.171
0.7495,1.624,0.8745,-1.1865,-0.063,1.2495,0.264,0.2925,0.134,0.0845,0.368,0.089,0.2435,-0.349,0.175
0.752,1.6405,0.889,-1.196,-0.069,1.265,0.26,0.2905,0.1345,0.083,0.3655,0.0845,0.241,-0.338,0.1775
0.754,1.6295,0.876,-1.192,-0.061,1.253,0.269,0.292,0.1405,0.0915,0.376,0.093,0.245,-0.3465,0.182
0.763,1.615,0.8525,-1.189,-0.045,1.234,0.2745,0.3015,0.146,0.097,0.3805,0.098,0.2455,-0.358,0.1835
0.775,1.6125,0.838,-1.1935,-0.032,1.2255,0.2765,0.3075,0.1515,0.099,0.3825,0.101,0.2425,-0.367,0.19
0.784,1.62,0.8365,-1.202,-0.0265,1.2285,0.2705,0.306,0.15,0.0995,0.381,0.0985,0.241,-0.368,0.197
0.774,1.6255,0.8515,-1.1995,-0.039,1.2385,0.269,0.2955,0.1395,0.089,0.37,0.088,0.2335,-0.3485,0.1965
0.7625,1.629,0.8665,-1.1955,-0.0525,1.248,0.267,0.2845,0.13,0.084,0.367,0.0855,0.232,-0.3495,0.195
0.762,1.64,0.879,-1.201,-0.059,1.26,0.2695,0.285,0.1295,0.082,0.367,0.0845,0.232,-0.368,0.1945
0.7645,1.637,0.873,-1.2005,-0.0545,1.255,0.273,0.295,0.1365,0.085,0.369,0.0875,0.2265,-0.373,0.1955
0.7655,1.612,0.847,-1.1885,-0.041,1.23,0.2705,0.303,0.141,0.091,0.3755,0.094,0.226,-0.396,0.1945
0.763,1.5945,0.832,-1.1785,-0.035,1.213,0.2815,0.3085,0.145,0.0965,0.382,0.1,0.228,-0.396,0.2005
0.7645,1.607,0.8435,-1.1855,-0.0395,1.2255,0.281,0.3035,0.1425,0.096,0.3835,0.1,0.2315,-0.368,0.207
0.7585,1.617,0.859,-1.1875,-0.0505,1.238,0.273,0.2985,0.139,0.092,0.3785,0.095,0.2325,-0.3565,0.195
0.7545,1.615,0.861,-1.185,-0.0535,1.2385,0.2725,0.2875,0.132,0.086,0.371,0.089,0.2285,-0.362,0.1915
0.768,1.621,0.8535,-1.1945,-0.043,1.2375,0.275,0.2825,0.131,0.0865,0.3725,0.0905,0.23,-0.3715,0.1935
0.7755,1.6255,0.85,-1.2005,-0.037,1.238,0.274,0.296,0.14,0.0915,0.3745,0.0925,0.2325,-0.368,0.193
0.7735,1.626,0.8525,-1.1995,-0.0395,1.2395,0.272,0.2945,0.135,0.086,0.371,0.09,0.2345,-0.3715,0.1965
0.7715,1.626,0.855,-1.1985,-0.042,1.241,0.2695,0.2865,0.13,0.082,0.3675,0.086,0.235,-0.372,0.1945
0.7685,1.608,0.8405,-1.1885,-0.036,1.2245,0.274,0.2835,0.1245,0.0795,0.365,0.086,0.232,-0.382,0.198
0.7675,1.5975,0.8305,-1.1825,-0.032,1.2145,0.276,0.276,0.12,0.076,0.3635,0.085,0.231,-0.3885,0.2015
0.7715,1.6115,0.8405,-1.1915,-0.035,1.2265,0.2715,0.2735,0.117,0.069,0.357,0.0775,0.2275,-0.3765,0.2015
0.7675,1.603,0.8355,-1.185,-0.0345,1.2195,0.276,0.2825,0.116,0.07,0.3565,0.08,0.225,-0.374,0.204
0.7635,1.602,0.839,-1.1825,-0.038,1.2205,0.276,0.285,0.125,0.079,0.363,0.0845,0.2275,-0.372,0.199
0.759,1.588,0.8295,-1.1735,-0.0355,1.209,0.2875,0.294,0.1325,0.0835,0.3695,0.09,0.229,-0.383,0.195
0.7615,1.5825,0.822,-1.172,-0.0305,1.2025,0.2865,0.2965,0.131,0.084,0.3695,0.0905,0.2345,-0.39,0.2045
0.7675,1.6065,0.8395,-1.187,-0.0365,1.2235,0.2835,0.2885,0.1275,0.078,0.362,0.0815,0.2375,-0.379,0.211
0.772,1.6095,0.838,-1.1905,-0.033,1.224,0.282,0.2885,0.124,0.0745,0.359,0.078,0.236,-0.3785,0.216
0.7755,1.609,0.834,-1.1925,-0.0295,1.222,0.2715,0.287,0.123,0.075,0.3605,0.078,0.2385,-0.377,0.222
0.7655,1.5985,0.834,-1.182,-0.0345,1.2165,0.283,0.287,0.122,0.074,0.36,0.078,0.233,-0.3825,0.2175
0.756,1.6045,0.849,-1.18,-0.0465,1.227,0.2875,0.285,0.119,0.073,0.3585,0.0745,0.2265,-0.376,0.212
0.758,1.6245,0.867,-1.1915,-0.0545,1.246,0.2755,0.28,0.1165,0.069,0.354,0.069,0.2255,-0.359,0.2085
0.761,1.6265,0.866,-1.194,-0.053,1.2465,0.279,0.271,0.1125,0.0645,0.35,0.065,0.2225,-0.3665,0.209
0.751,1.6165,0.866,-1.184,-0.0575,1.2415,0.282,0.273,0.113,0.066,0.349,0.0655,0.216,-0.375,0.208
0.7515,1.608,0.857,-1.1795,-0.053,1.2325,0.2805,0.2825,0.118,0.071,0.3525,0.067,0.2135,-0.3865,0.2015
0.761,1.6175,0.857,-1.1895,-0.048,1.2375,0.2845,0.287,0.124,0.0755,0.357,0.07,0.2205,-0.3855,0.197
0.7645,1.631,0.867,-1.1975,-0.0515,1.249,0.2815,0.2875,0.1215,0.0725,0.353,0.0675,0.2205,-0.3825,0.1925
0.7715,1.6325,0.861,-1.202,-0.045,1.247,0.276,0.2845,0.1165,0.068,0.3495,0.0625,0.2255,-0.391,0.197
0.7635,1.622,0.8595,-1.1925,-0.0485,1.241,0.2685,0.2845,0.1175,0.0685,0.3465,0.061,0.2265,-0.385,0.192
0.769,1.625,0.8565,-1.197,-0.044,1.241,0.279,0.281,0.12,0.069,0.3455,0.059,0.2275,-0.384,0.195
0.778,1.635,0.8575,-1.2065,-0.04,1.2465,0.2855,0.2685,0.1135,0.066,0.3435,0.0575,0.231,-0.375,0.205
0.76,1.6295,0.87,-1.1945,-0.055,1.2495,0.2815,0.269,0.111,0.062,0.339,0.052,0.222,-0.356,0.2035
0.759,1.6265,0.868,-1.1925,-0.055,1.2475,0.2815,0.278,0.116,0.0625,0.3395,0.0505,0.224,-0.359,0.212
0.755,1.618,0.864,-1.1865,-0.055,1.2415,0.28,0.269,0.1065,0.057,0.335,0.05,0.222,-0.371,0.2125
0.7555,1.614,0.859,-1.185,-0.052,1.237,0.2795,0.277,0.108,0.059,0.338,0.0545,0.222,-0.3775,0.215
0.768,1.618,0.8505,-1.193,-0.0415,1.2345,0.2835,0.294,0.1215,0.07,0.348,0.0645,0.23,-0.378,0.215
0.7775,1.628,0.851,-1.203,-0.037,1.24,0.291,0.2945,0.13,0.0775,0.356,0.071,0.231,-0.3725,0.2125
0.7855,1.6585,0.874,-1.222,-0.0445,1.2665,0.2795,0.288,0.123,0.0725,0.3525,0.0665,0.231,-0.3575,0.217
0.774,1.642,0.8685,-1.208,-0.0475,1.2555,0.2795,0.2845,0.1185,0.0695,0.3515,0.065,0.227,-0.359,0.2185
0.7685,1.607,0.839,-1.188,-0.0355,1.2235,0.2955,0.2945,0.131,0.0815,0.3625,0.078,0.2265,-0.381,0.2125
0.7785,1.6185,0.841,-1.1985,-0.0315,1.23,0.2935,0.2935,0.1295,0.082,0.3635,0.081,0.2275,-0.3775,0.208
0.7885,1.623,0.835,-1.2055,-0.0235,1.229,0.291,0.2995,0.133,0.0845,0.3655,0.084,0.2305,-0.3735,0.205
0.7855,1.6245,0.839,-1.205,-0.027,1.232,0.284,0.2945,0.1295,0.082,0.3655,0.0815,0.233,-0.381,0.2005
0.778,1.638,0.8605,-1.208,-0.0415,1.2495,0.278,0.2885,0.1215,0.074,0.3585,0.0735,0.2315,-0.3745,0.2015
0.7695,1.6485,0.8795,-1.209,-0.055,1.2645,0.277,0.288,0.1205,0.071,0.35,0.0645,0.2265,-0.364,0.2025
0.7715,1.654,0.883,-1.2125,-0.056,1.2685,0.2705,0.279,0.114,0.0655,0.3435,0.0555,0.2245,-0.355,0.2105
0.78,1.6505,0.8715,-1.2155,-0.046,1.2615,0.2755,0.2835,0.1145,0.0645,0.343,0.056,0.226,-0.3545,0.211
0.774,1.64,0.866,-1.207,-0.046,1.2535,0.2835,0.289,0.122,0.0715,0.35,0.062,0.228,-0.3635,0.2115
0.7715,1.627,0.8555,-1.199,-0.0425,1.2415,0.2885,0.2965,0.124,0.0745,0.3515,0.0615,0.227,-0.362,0.221
0.7675,1.61,0.8435,-1.1885,-0.0385,1.227,0.29,0.291,0.117,0.0695,0.347,0.059,0.222,-0.3825,0.219
0.7605,1.6095,0.85,-1.185,-0.045,1.23,0.2885,0.2855,0.1185,0.0695,0.347,0.0585,0.219,-0.3965,0.213
0.763,1.6335,0.8715,-1.1985,-0.0545,1.253,0.292,0.294,0.126,0.074,0.3495,0.0595,0.2185,-0.3705,0.208
0.7695,1.627,0.8575,-1.1985,-0.044,1.2425,0.301,0.3045,0.1375,0.085,0.3625,0.0705,0.2225,-0.3735,0.204
0.7805,1.6325,0.8525,-1.2065,-0.0365,1.2425,0.2965,0.3005,0.132,0.0815,0.3595,0.067,0.2255,-0.3735,0.1995
0.78,1.658,0.8785,-1.219,-0.0495,1.2685,0.283,0.2905,0.1235,0.0735,0.3525,0.06,0.2275,-0.3575,0.2005
0.781,1.6695,0.889,-1.225,-0.0545,1.2795,0.287,0.288,0.1265,0.0775,0.3565,0.0625,0.227,-0.349,0.1965
0.782,1.6355,0.854,-1.2085,-0.036,1.245,0.3065,0.3005,0.142,0.0935,0.372,0.0795,0.225,-0.3765,0.186
0.777,1.5995,0.823,-1.188,-0.0235,1.2115,0.3145,0.317,0.1575,0.1075,0.3865,0.093,0.2265,-0.397,0.1845
0.7825,1.626,0.844,-1.2045,-0.031,1.235,0.3105,0.313,0.1465,0.095,0.3745,0.0795,0.221,-0.3705,0.186
0.7765,1.63,0.854,-1.2035,-0.039,1.242,0.316,0.3125,0.1455,0.0925,0.371,0.076,0.213,-0.3625,0.179
0.7715,1.636,0.8645,-1.204,-0.0465,1.2505,0.3185,0.313,0.146,0.094,0.372,0.075,0.2095,-0.3605,0.18
0.774,1.6585,0.885,-1.216,-0.0555,1.272,0.3145,0.3085,0.1405,0.0875,0.366,0.067,0.2075,-0.357,0.182
0.7715,1.6635,0.8925,-1.2175,-0.0605,1.278,0.3175,0.305,0.142,0.0875,0.365,0.065,0.2075,-0.3485,0.1775
0.771,1.647,0.8765,-1.209,-0.053,1.262,0.321,0.3085,0.1425,0.089,0.3635,0.0665,0.208,-0.3495,0.1835
0.7725,1.641,0.8685,-1.207,-0.048,1.255,0.319,0.3075,0.1435,0.09,0.367,0.07,0.211,-0.357,0.1835
0.773,1.6585,0.886,-1.2155,-0.057,1.2725,0.3195,0.3025,0.1405,0.0875,0.3645,0.0675,0.212,-0.343,0.1835
0.7655,1.6655,0.9,-1.2155,-0.0675,1.283,0.3205,0.3075,0.14,0.084,0.358,0.061,0.2055,-0.3375,0.1825
0.762,1.669,0.9075,-1.2155,-0.073,1.2885,0.3175,0.2995,0.135,0.0785,0.353,0.057,0.201,-0.336,0.176
0.7795,1.6805,0.9015,-1.23,-0.0615,1.2915,0.3025,0.2965,0.1335,0.0785,0.351,0.0545,0.2045,-0.3285,0.18
0.7925,1.6835,0.8915,-1.238,-0.0495,1.288,0.307,0.307,0.1395,0.085,0.3565,0.0595,0.205,-0.3295,0.1885
0.785,1.671,0.8865,-1.2275,-0.051,1.279,0.3265,0.3145,0.1475,0.097,0.37,0.0725,0.203,-0.326,0.1915
0.787,1.673,0.8865,-1.23,-0.05,1.28,0.3255,0.313,0.151,0.1015,0.376,0.078,0.207,-0.325,0.187
0.7985,1.6725,0.8745,-1.2355,-0.038,1.2735,0.328,0.311,0.1495,0.1005,0.3725,0.0745,0.205,-0.3325,0.1865
0.795,1.6645,0.87,-1.2295,-0.0375,1.267,0.334,0.3105,0.151,0.1035,0.373,0.075,0.1995,-0.3315,0.1865
0.782,1.6655,0.884,-1.2235,-0.051,1.2745,0.3345,0.3135,0.154,0.108,0.378,0.081,0.2065,-0.3215,0.1845
0.795,1.6685,0.874,-1.2315,-0.0395,1.2715,0.327,0.322,0.1635,0.1165,0.384,0.087,0.2175,-0.3235,0.187
0.8025,1.656,0.854,-1.2295,-0.026,1.255,0.333,0.3225,0.166,0.119,0.389,0.092,0.2175,-0.3375,0.1845
0.798,1.6735,0.8755,-1.236,-0.039,1.2745,0.3335,0.315,0.1595,0.1135,0.3865,0.0895,0.2175,-0.3225,0.1795
0.7915,1.7095,0.9185,-1.2505,-0.0635,1.3145,0.3325,0.3105,0.154,0.107,0.3795,0.081,0.218,-0.295,0.1815
0.777,1.719,0.943,-1.248,-0.083,1.331,0.338,0.308,0.15,0.1045,0.373,0.0745,0.215,-0.2855,0.184
0.769,1.7035,0.935,-1.236,-0.0835,1.3195,0.339,0.3125,0.1545,0.1085,0.3775,0.0775,0.213,-0.2895,0.1795
0.774,1.6815,0.908,-1.228,-0.0675,1.295,0.3475,0.3265,0.165,0.1195,0.3895,0.088,0.2165,-0.3015,0.1755
0.791,1.6885,0.898,-1.24,-0.0535,1.2935,0.353,0.322,0.164,0.119,0.387,0.0855,0.218,-0.3075,0.178
0.79,1.688,0.899,-1.239,-0.0545,1.294,0.357,0.3145,0.1595,0.1145,0.3835,0.082,0.216,-0.307,0.183
0.791,1.6955,0.905,-1.243,-0.0575,1.3005,0.3425,0.325,0.1675,0.123,0.3905,0.0865,0.219,-0.2985,0.177
0.789,1.699,0.91,-1.244,-0.061,1.305,0.3395,0.323,0.166,0.1215,0.392,0.089,0.2155,-0.2895,0.1735
0.787,1.6895,0.9025,-1.2385,-0.058,1.296,0.3385,0.316,0.163,0.1215,0.394,0.0925,0.2145,-0.291,0.174
0.798,1.702,0.904,-1.25,-0.053,1.303,0.3315,0.3245,0.1715,0.13,0.3995,0.0965,0.2185,-0.2925,0.168
0.805,1.7165,0.912,-1.2605,-0.054,1.3145,0.328,0.3235,0.172,0.1315,0.4015,0.0965,0.2215,-0.295,0.168
0.8115,1.7305,0.9195,-1.271,-0.054,1.325,0.3195,0.322,0.1745,0.134,0.4035,0.0975,0.2285,-0.2865,0.162
0.82,1.7505,0.9305,-1.2855,-0.0555,1.341,0.309,0.3145,0.1715,0.132,0.401,0.097,0.233,-0.2675,0.154
0.8215,1.757,0.936,-1.289,-0.0575,1.3465,0.297,0.3165,0.175,0.136,0.406,0.0995,0.234,-0.2605,0.157
0.812,1.7555,0.9445,-1.284,-0.0665,1.3505,0.29,0.3145,0.1765,0.138,0.4095,0.1025,0.239,-0.2615,0.1635
0.8125,1.748,0.936,-1.2805,-0.062,1.3425,0.278,0.3,0.168,0.135,0.406,0.1025,0.2435,-0.267,0.169
0.8085,1.74,0.932,-1.274,-0.062,1.3365,0.269,0.3105,0.17,0.1375,0.4095,0.1055,0.2485,-0.2755,0.171
0.8125,1.7425,0.931,-1.2775,-0.0595,1.337,0.252,0.3045,0.1675,0.136,0.409,0.1025,0.251,-0.275,0.177
0.8195,1.7385,0.9195,-1.2795,-0.05,1.3295,0.2435,0.299,0.163,0.1315,0.4035,0.094,0.251,-0.2725,0.1875
0.8175,1.7505,0.9335,-1.284,-0.058,1.3425,0.249,0.307,0.1675,0.134,0.406,0.0935,0.257,-0.268,0.1845
0.821,1.766,0.945,-1.2935,-0.062,1.3555,0.2445,0.3115,0.1755,0.1415,0.4135,0.099,0.2575,-0.253,0.185
0.825,1.7685,0.9445,-1.2965,-0.06,1.3565,0.238,0.3065,0.1705,0.1395,0.4135,0.0965,0.2575,-0.254,0.191
0.8295,1.7615,0.9325,-1.2955,-0.0515,1.347,0.2335,0.298,0.167,0.1375,0.41,0.091,0.259,-0.259,0.1965
0.8145,1.737,0.923,-1.2755,-0.0545,1.3305,0.2325,0.291,0.157,0.129,0.403,0.086,0.2505,-0.2645,0.2045
0.8015,1.723,0.9225,-1.262,-0.061,1.323,0.2225,0.299,0.1635,0.132,0.405,0.089,0.244,-0.265,0.2055
0.811,1.73,0.9195,-1.2705,-0.0545,1.325,0.216,0.3025,0.1705,0.138,0.406,0.092,0.2435,-0.262,0.207
0.822,1.74,0.9185,-1.281,-0.0485,1.3295,0.2145,0.305,0.1685,0.138,0.408,0.0975,0.245,-0.273,0.1995
0.8215,1.7475,0.9265,-1.2845,-0.0525,1.3375,0.2035,0.3085,0.17,0.1405,0.411,0.1025,0.244,-0.27,0.194
0.82,1.7485,0.929,-1.2845,-0.0545,1.339,0.208,0.2995,0.165,0.137,0.4095,0.0985,0.238,-0.264,0.1925
0.824,1.756,0.9325,-1.29,-0.0545,1.3445,0.2145,0.2985,0.1645,0.1345,0.4075,0.0955,0.2345,-0.259,0.197
0.817,1.77,0.9535,-1.2935,-0.0685,1.362,0.204,0.289,0.1585,0.13,0.4045,0.0935,0.2365,-0.2405,0.204
0.82,1.77,0.9505,-1.295,-0.0655,1.3605,0.203,0.2925,0.163,0.1375,0.413,0.0995,0.2435,-0.2335,0.208
0.833,1.778,0.9455,-1.3055,-0.0565,1.362,0.203,0.294,0.1625,0.139,0.416,0.105,0.2465,-0.2365,0.219
0.8235,1.7755,0.953,-1.2995,-0.065,1.3645,0.198,0.285,0.156,0.1345,0.4135,0.103,0.246,-0.2375,0.227
0.816,1.765,0.949,-1.2905,-0.0665,1.357,0.197,0.284,0.1545,0.134,0.4135,0.103,0.2485,-0.236,0.227
0.8225,1.7615,0.9395,-1.292,-0.0585,1.3505,0.1935,0.288,0.158,0.1375,0.416,0.108,0.2505,-0.238,0.2275
0.8205,1.756,0.936,-1.2885,-0.058,1.3465,0.196,0.2805,0.1485,0.1315,0.4115,0.103,0.2485,-0.245,0.2365
0.822,1.764,0.9425,-1.2925,-0.0605,1.3535,0.1895,0.275,0.144,0.129,0.411,0.101,0.2485,-0.239,0.2385
0.8255,1.7655,0.9405,-1.2955,-0.058,1.3535,0.18,0.283,0.154,0.137,0.4175,0.106,0.2545,-0.233,0.243
0.8225,1.7535,0.932,-1.288,-0.055,1.343,0.1895,0.2905,0.161,0.1425,0.421,0.111,0.2595,-0.2355,0.2435
0.83,1.7385,0.909,-1.284,-0.04,1.324,0.192,0.2965,0.1715,0.153,0.4325,0.124,0.272,-0.261,0.2435
0.8335,1.7385,0.9055,-1.286,-0.036,1.322,0.1935,0.2925,0.17,0.156,0.4365,0.129,0.277,-0.259,0.244
0.8165,1.7525,0.937,-1.2845,-0.0605,1.345,0.1825,0.2815,0.1585,0.1455,0.427,0.1185,0.2715,-0.224,0.24
0.8405,1.763,0.9225,-1.3015,-0.0415,1.343,0.168,0.278,0.1565,0.145,0.4275,0.118,0.2765,-0.226,0.2435
0.8625,1.792,0.9295,-1.327,-0.034,1.361,0.1805,0.281,0.161,0.1505,0.4335,0.122,0.2765,-0.2195,0.2455
0.8585,1.8095,0.9515,-1.334,-0.047,1.381,0.1865,0.2765,0.153,0.143,0.431,0.1175,0.2725,-0.198,0.246
0.8625,1.787,0.925,-1.3245,-0.0315,1.3565,0.1945,0.289,0.1665,0.156,0.4405,0.1275,0.2775,-0.208,0.238
0.8665,1.7685,0.902,-1.3175,-0.018,1.3355,0.1975,0.3055,0.1845,0.1745,0.4555,0.142,0.29,-0.227,0.238
0.8785,1.7665,0.888,-1.3225,-0.005,1.3275,0.1925,0.302,0.181,0.175,0.4585,0.1435,0.2985,-0.234,0.243
0.88,1.787,0.907,-1.3335,-0.0135,1.3475,0.1825,0.283,0.172,0.166,0.447,0.1315,0.2965,-0.214,0.24
0.884,1.797,0.9135,-1.3405,-0.015,1.3555,0.183,0.2795,0.1685,0.1615,0.444,0.1275,0.299,-0.2145,0.244
0.8925,1.806,0.9145,-1.349,-0.0115,1.3605,0.194,0.304,0.178,0.168,0.447,0.13,0.3,-0.2305,0.2485
0.889,1.8255,0.9375,-1.357,-0.0245,1.3815,0.1875,0.3075,0.1755,0.16,0.438,0.1215,0.2975,-0.217,0.264
0.8705,1.8135,0.9435,-1.342,-0.037,1.3785,0.199,0.307,0.1725,0.1595,0.4385,0.123,0.297,-0.2115,0.2745
0.8695,1.7985,0.93,-1.334,-0.0305,1.3645,0.2095,0.3085,0.1805,0.168,0.446,0.131,0.3005,-0.225,0.263
0.8685,1.7735,0.9055,-1.321,-0.019,1.34,0.204,0.308,0.1835,0.168,0.4475,0.1325,0.304,-0.2575,0.2555
0.8685,1.77,0.902,-1.319,-0.017,1.336,0.209,0.3095,0.1815,0.167,0.4445,0.131,0.307,-0.266,0.2595
0.8705,1.7625,0.8925,-1.3165,-0.011,1.328,0.2155,0.312,0.1795,0.164,0.4425,0.1285,0.3075,-0.2645,0.263
0.8605,1.754,0.894,-1.307,-0.017,1.324,0.219,0.3155,0.18,0.167,0.443,0.1285,0.3065,-0.263,0.2595
0.8575,1.7695,0.912,-1.3135,-0.0275,1.341,0.222,0.3085,0.175,0.161,0.436,0.121,0.303,-0.2485,0.26
0.8465,1.7575,0.9115,-1.302,-0.0325,1.335,0.2195,0.3005,0.1625,0.146,0.422,0.107,0.294,-0.251,0.258
0.8485,1.7475,0.9,-1.298,-0.026,1.324,0.2285,0.2935,0.1625,0.1465,0.4225,0.108,0.294,-0.259,0.2565
0.8495,1.731,0.882,-1.2905,-0.0165,1.307,0.2415,0.314,0.1745,0.1545,0.4305,0.1155,0.292,-0.2755,0.2545
0.8445,1.7265,0.8825,-1.2855,-0.019,1.3045,0.2365,0.319,0.1745,0.155,0.4295,0.1145,0.2845,-0.2825,0.253
0.8335,1.7235,0.8905,-1.2785,-0.0285,1.3075,0.236,0.3055,0.166,0.1485,0.4245,0.109,0.2775,-0.283,0.2515
0.827,1.7215,0.895,-1.274,-0.0345,1.3085,0.2515,0.3105,0.167,0.1495,0.425,0.107,0.271,-0.282,0.25
0.8275,1.728,0.901,-1.2775,-0.037,1.3145,0.2655,0.3105,0.1655,0.1495,0.423,0.106,0.264,-0.288,0.2495
0.819,1.719,0.9005,-1.269,-0.041,1.31,0.2715,0.3115,0.162,0.1455,0.4195,0.104,0.2595,-0.3035,0.2415
0.818,1.714,0.8965,-1.266,-0.0395,1.3055,0.27,0.3005,0.158,0.1425,0.42,0.1045,0.262,-0.3115,0.236
0.828,1.7145,0.8875,-1.2715,-0.03,1.3015,0.2665,0.301,0.1585,0.143,0.421,0.1065,0.264,-0.3145,0.2365
0.829,1.714,0.886,-1.2715,-0.0285,1.3005,0.268,0.3065,0.16,0.143,0.42,0.106,0.267,-0.3065,0.237
0.826,1.72,0.8945,-1.273,-0.0345,1.3075,0.267,0.3,0.1525,0.135,0.4135,0.0985,0.266,-0.3065,0.2305
0.8345,1.7335,0.899,-1.284,-0.0325,1.3165,0.2645,0.2935,0.144,0.127,0.4045,0.0895,0.2645,-0.3085,0.2255
0.83,1.699,0.8695,-1.2645,-0.02,1.2845,0.27,0.307,0.158,0.1375,0.4145,0.0995,0.267,-0.3245,0.2265
0.8375,1.6585,0.821,-1.248,0.008,1.24,0.2795,0.33,0.1795,0.157,0.4345,0.119,0.2735,-0.3585,0.2275
0.84,1.656,0.816,-1.248,0.012,1.2365,0.279,0.3195,0.1685,0.148,0.4245,0.1085,0.2745,-0.3565,0.237
0.828,1.6855,0.8575,-1.2565,-0.015,1.2715,0.2695,0.3105,0.1555,0.1315,0.405,0.0895,0.27,-0.32,0.237
0.8205,1.706,0.8855,-1.263,-0.0325,1.296,0.267,0.301,0.1495,0.1275,0.401,0.084,0.2655,-0.3065,0.2265
0.8095,1.6855,0.8765,-1.2475,-0.0335,1.2815,0.2815,0.3135,0.161,0.1375,0.4085,0.088,0.2595,-0.3225,0.226
0.8005,1.668,0.868,-1.234,-0.034,1.268,0.288,0.325,0.1675,0.1435,0.4125,0.09,0.2595,-0.3405,0.227
0.789,1.6565,0.868,-1.2225,-0.04,1.2625,0.289,0.31,0.155,0.1335,0.401,0.076,0.2505,-0.3535,0.229
0.7885,1.665,0.8765,-1.2265,-0.0445,1.271,0.293,0.311,0.158,0.132,0.397,0.0725,0.243,-0.3515,0.227
0.7875,1.6625,0.8755,-1.225,-0.0445,1.269,0.298,0.3125,0.1615,0.14,0.405,0.0765,0.242,-0.3675,0.218
0.791,1.6625,0.8715,-1.227,-0.0405,1.267,0.301,0.3175,0.1645,0.142,0.4045,0.07,0.234,-0.3785,0.21
0.7875,1.676,0.889,-1.2315,-0.051,1.2825,0.3,0.3105,0.159,0.132,0.3905,0.0555,0.2215,-0.366,0.204
0.7835,1.6815,0.899,-1.2325,-0.058,1.2905,0.3025,0.3175,0.1615,0.132,0.3895,0.058,0.222,-0.366,0.2025
0.791,1.699,0.9085,-1.245,-0.059,1.304,0.299,0.3205,0.1595,0.1295,0.387,0.0575,0.2245,-0.3475,0.2025
0.784,1.6855,0.902,-1.235,-0.059,1.294,0.3095,0.313,0.155,0.1275,0.3835,0.058,0.2185,-0.3415,0.201
0.778,1.6445,0.867,-1.2115,-0.045,1.256,0.3265,0.33,0.1695,0.14,0.395,0.069,0.2155,-0.376,0.1975
0.7675,1.639,0.872,-1.203,-0.0525,1.2555,0.3175,0.324,0.163,0.133,0.3885,0.0595,0.21,-0.379,0.1985
0.7695,1.666,0.8975,-1.2175,-0.0645,1.282,0.301,0.3155,0.1515,0.123,0.3775,0.05,0.213,-0.364,0.2015
0.7845,1.6815,0.898,-1.233,-0.057,1.29,0.307,0.311,0.148,0.119,0.374,0.047,0.2145,-0.3625,0.203
0.7955,1.679,0.8845,-1.237,-0.0445,1.282,0.3085,0.315,0.15,0.121,0.376,0.05,0.2155,-0.3595,0.2035
0.796,1.6655,0.87,-1.231,-0.037,1.268,0.31,0.3225,0.1545,0.121,0.377,0.0495,0.215,-0.3705,0.2125
0.786,1.651,0.8655,-1.2185,-0.04,1.2585,0.3195,0.3165,0.1495,0.1175,0.376,0.0495,0.213,-0.386,0.2155
0.779,1.6405,0.8625,-1.21,-0.042,1.252,0.3115,0.3135,0.1465,0.1185,0.3775,0.0515,0.2175,-0.4025,0.208
0.7715,1.6295,0.8585,-1.2005,-0.044,1.244,0.306,0.306,0.1445,0.1165,0.378,0.05,0.2225,-0.407,0.209
0.773,1.627,0.8545,-1.2,-0.041,1.2405,0.307,0.3105,0.1455,0.1215,0.384,0.059,0.2295,-0.3885,0.208
0.771,1.6335,0.863,-1.2025,-0.046,1.2485,0.3095,0.3195,0.151,0.124,0.384,0.0605,0.228,-0.378,0.2095
0.7695,1.643,0.874,-1.2065,-0.0525,1.259,0.303,0.326,0.154,0.122,0.3815,0.0565,0.2315,-0.385,0.2155
0.7785,1.661,0.883,-1.2195,-0.0525,1.272,0.2965,0.3205,0.1495,0.1205,0.38,0.057,0.2405,-0.3885,0.2175
0.787,1.662,0.8755,-1.2245,-0.0445,1.269,0.299,0.324,0.156,0.127,0.3875,0.0655,0.2445,-0.3975,0.2205
0.777,1.631,0.8545,-1.204,-0.039,1.243,0.313,0.3345,0.1645,0.1335,0.3935,0.0715,0.24,-0.4115,0.2185
0.7705,1.619,0.8495,-1.1945,-0.0395,1.2345,0.326,0.334,0.1615,0.1325,0.3905,0.0685,0.237,-0.4065,0.2215
0.787,1.6395,0.853,-1.213,-0.0335,1.2465,0.32,0.3275,0.1575,0.129,0.389,0.068,0.2425,-0.3915,0.2285
0.787,1.6525,0.866,-1.2195,-0.04,1.2595,0.306,0.3175,0.1545,0.127,0.387,0.0665,0.2405,-0.3705,0.2275
0.7855,1.6415,0.8565,-1.2135,-0.0355,1.249,0.296,0.3265,0.1585,0.128,0.39,0.07,0.2415,-0.3685,0.2315
0.7955,1.635,0.84,-1.215,-0.0225,1.2375,0.3045,0.327,0.1585,0.128,0.3915,0.0705,0.2435,-0.3825,0.2365
0.797,1.6545,0.858,-1.2255,-0.031,1.2565,0.313,0.321,0.156,0.128,0.39,0.068,0.244,-0.368,0.2345
0.792,1.665,0.873,-1.2285,-0.0405,1.269,0.3085,0.332,0.163,0.133,0.395,0.075,0.253,-0.36,0.234
0.793,1.6585,0.866,-1.226,-0.037,1.2625,0.311,0.3315,0.1675,0.14,0.401,0.082,0.2585,-0.3785,0.2345
0.8025,1.664,0.862,-1.233,-0.03,1.263,0.31,0.3235,0.16,0.1345,0.397,0.08,0.258,-0.39,0.2395
0.801,1.663,0.8625,-1.232,-0.031,1.263,0.312,0.327,0.1625,0.1325,0.3955,0.0785,0.258,-0.389,0.2535
0.7945,1.651,0.857,-1.2225,-0.0315,1.254,0.3185,0.333,0.1675,0.135,0.397,0.0795,0.2545,-0.388,0.2465
0.791,1.638,0.847,-1.2145,-0.0285,1.243,0.31,0.3355,0.1655,0.1345,0.3965,0.079,0.2545,-0.3935,0.23
0.79,1.6335,0.8435,-1.2115,-0.027,1.239,0.2995,0.333,0.1645,0.1335,0.3955,0.0765,0.2545,-0.3965,0.235
0.7945,1.6445,0.851,-1.2195,-0.0285,1.248,0.3085,0.333,0.1675,0.1355,0.3945,0.076,0.249,-0.3835,0.2355
0.788,1.6375,0.8495,-1.213,-0.031,1.2435,0.3165,0.338,0.174,0.1405,0.398,0.077,0.2465,-0.383,0.2345
0.7915,1.6265,0.8355,-1.209,-0.0225,1.231,0.3105,0.344,0.176,0.142,0.4005,0.0795,0.246,-0.4055,0.236
0.79,1.633,0.8435,-1.2115,-0.027,1.2385,0.314,0.336,0.1695,0.1375,0.396,0.0745,0.2395,-0.4005,0.229
0.7785,1.6295,0.851,-1.204,-0.0365,1.2405,0.3225,0.3325,0.17,0.1355,0.393,0.0705,0.2355,-0.39,0.221
0.7805,1.619,0.839,-1.2,-0.0295,1.2295,0.3235,0.341,0.174,0.139,0.395,0.071,0.232,-0.398,0.2105
0.7655,1.5915,0.8265,-1.1785,-0.031,1.2095,0.3335,0.3485,0.1755,0.144,0.4,0.073,0.2235,-0.424,0.203
0.766,1.562,0.7965,-1.164,-0.0155,1.1795,0.3415,0.356,0.185,0.154,0.4105,0.084,0.225,-0.44,0.203
0.779,1.6005,0.822,-1.19,-0.022,1.2115,0.325,0.345,0.1725,0.14,0.3965,0.072,0.2245,-0.41,0.2105
0.7885,1.6635,0.8755,-1.226,-0.0435,1.2695,0.301,0.3215,0.1515,0.12,0.3775,0.052,0.2255,-0.381,0.213
0.7975,1.6775,0.88,-1.2375,-0.0415,1.279,0.294,0.3155,0.151,0.1215,0.378,0.052,0.23,-0.3745,0.217
0.788,1.671,0.8835,-1.2295,-0.048,1.2775,0.308,0.3145,0.1495,0.121,0.3745,0.047,0.2235,-0.3805,0.2295
0.7815,1.6575,0.8765,-1.2195,-0.0475,1.2675,0.313,0.326,0.157,0.1265,0.38,0.052,0.2205,-0.376,0.222
0.776,1.6405,0.8645,-1.208,-0.0445,1.253,0.3105,0.3425,0.166,0.13,0.384,0.0555,0.225,-0.385,0.213
0.7715,1.6485,0.8775,-1.21,-0.053,1.2635,0.3055,0.32,0.152,0.1185,0.372,0.044,0.23,-0.392,0.2165
0.777,1.66,0.8835,-1.2185,-0.0535,1.272,0.3015,0.3135,0.1475,0.114,0.365,0.039,0.236,-0.3755,0.218
0.782,1.649,0.8675,-1.2155,-0.043,1.2585,0.3095,0.32,0.1515,0.1175,0.3685,0.041,0.236,-0.3925,0.225
0.7745,1.66,0.886,-1.2175,-0.056,1.273,0.3075,0.3255,0.155,0.1185,0.3695,0.0395,0.233,-0.385,0.232
0.7805,1.688,0.908,-1.234,-0.064,1.298,0.3065,0.332,0.1595,0.12,0.37,0.04,0.237,-0.362,0.235
0.7985,1.684,0.886,-1.241,-0.044,1.285,0.3135,0.33,0.1615,0.1285,0.3795,0.049,0.238,-0.377,0.2345
0.799,1.6535,0.8545,-1.226,-0.028,1.254,0.3165,0.343,0.172,0.135,0.3835,0.054,0.2315,-0.3935,0.2335
0.7985,1.636,0.838,-1.2175,-0.02,1.2375,0.3235,0.3485,0.1745,0.1365,0.386,0.056,0.239,-0.4045,0.243
0.793,1.6485,0.856,-1.221,-0.0315,1.2525,0.3175,0.3345,0.1635,0.132,0.3815,0.0495,0.2445,-0.389,0.2475
0.7845,1.66,0.876,-1.222,-0.046,1.2685,0.3095,0.325,0.16,0.129,0.3775,0.0425,0.241,-0.372,0.2375
0.7905,1.66,0.87,-1.225,-0.04,1.265,0.3105,0.3335,0.171,0.138,0.3855,0.048,0.239,-0.376,0.2345
0.775,1.6485,0.874,-1.2115,-0.05,1.2615,0.3095,0.3335,0.1685,0.134,0.3815,0.045,0.2265,-0.383,0.233
0.7705,1.6575,0.888,-1.214,-0.059,1.273,0.3125,0.3275,0.1575,0.1245,0.376,0.042,0.221,-0.3695,0.224
0.7975,1.67,0.873,-1.2335,-0.038,1.2715,0.317,0.3345,0.164,0.132,0.381,0.05,0.2285,-0.3685,0.23
0.794,1.656,0.8625,-1.225,-0.0345,1.2595,0.3115,0.334,0.166,0.1335,0.3805,0.054,0.2375,-0.387,0.248
0.793,1.656,0.8635,-1.225,-0.0355,1.26,0.309,0.3325,0.163,0.1285,0.378,0.0545,0.2395,-0.387,0.2485
0.792,1.648,0.8565,-1.22,-0.0325,1.2525,0.326,0.341,0.168,0.131,0.3805,0.0595,0.235,-0.3935,0.24
0.7865,1.6295,0.8435,-1.208,-0.029,1.237,0.33,0.3475,0.1735,0.136,0.3855,0.066,0.2335,-0.4005,0.233
0.797,1.63,0.8335,-1.2135,-0.0185,1.232,0.3285,0.343,0.1685,0.1315,0.383,0.063,0.234,-0.4105,0.2305
0.784,1.638,0.854,-1.211,-0.035,1.246,0.329,0.3315,0.1625,0.1275,0.3785,0.0575,0.2325,-0.413,0.2295
0.779,1.619,0.8405,-1.199,-0.031,1.23,0.34,0.338,0.172,0.1415,0.393,0.073,0.236,-0.428,0.225
0.7845,1.609,0.825,-1.1965,-0.021,1.2175,0.345,0.3505,0.1805,0.1495,0.402,0.082,0.243,-0.4305,0.221
0.7885,1.6395,0.8515,-1.214,-0.032,1.246,0.334,0.352,0.177,0.141,0.393,0.072,0.2505,-0.404,0.2185
0.793,1.654,0.8615,-1.2235,-0.0345,1.258,0.3425,0.356,0.1755,0.1365,0.388,0.0685,0.2545,-0.3955,0.2135
0.7875,1.66,0.8725,-1.2235,-0.043,1.2665,0.3405,0.3485,0.168,0.1325,0.3825,0.0635,0.2505,-0.384,0.2165
0.794,1.6555,0.8625,-1.225,-0.0345,1.259,0.3305,0.3405,0.166,0.1345,0.384,0.0635,0.25,-0.39,0.2265
0.7875,1.6395,0.853,-1.2135,-0.033,1.2465,0.325,0.3405,0.1695,0.1365,0.385,0.0665,0.2515,-0.4015,0.2245
0.783,1.638,0.8555,-1.2105,-0.0365,1.247,0.327,0.348,0.1705,0.1365,0.3865,0.0675,0.252,-0.407,0.2195
0.7735,1.6295,0.8565,-1.2015,-0.042,1.243,0.335,0.354,0.173,0.1405,0.3915,0.069,0.251,-0.4115,0.2195
0.7615,1.6185,0.8575,-1.19,-0.0485,1.2385,0.3285,0.3415,0.1665,0.135,0.386,0.068,0.2495,-0.405,0.2225
0.7555,1.611,0.856,-1.1835,-0.0505,1.234,0.3325,0.339,0.166,0.135,0.386,0.0665,0.2455,-0.406,0.226
0.751,1.609,0.8585,-1.18,-0.054,1.234,0.34,0.332,0.16,0.13,0.3815,0.061,0.239,-0.4005,0.231
0.7615,1.602,0.841,-1.182,-0.04,1.2215,0.33,0.345,0.167,0.1365,0.3865,0.0655,0.2405,-0.4035,0.2255
0.7775,1.614,0.837,-1.1955,-0.03,1.2255,0.33,0.349,0.176,0.146,0.3955,0.0725,0.246,-0.4005,0.2185
0.7795,1.635,0.856,-1.207,-0.0385,1.2455,0.337,0.3405,0.1685,0.136,0.3865,0.063,0.2375,-0.3805,0.2145
0.767,1.627,0.8605,-1.197,-0.047,1.244,0.335,0.35,0.164,0.13,0.381,0.057,0.231,-0.3865,0.219
0.7825,1.64,0.858,-1.2115,-0.038,1.249,0.3385,0.3535,0.173,0.1405,0.3875,0.064,0.238,-0.39,0.221
0.791,1.6525,0.862,-1.222,-0.036,1.2575,0.336,0.363,0.186,0.1515,0.396,0.0705,0.2465,-0.385,0.2145
0.7915,1.6495,0.8585,-1.2205,-0.034,1.2545,0.3295,0.353,0.177,0.1445,0.393,0.07,0.249,-0.3875,0.2155
0.802,1.6585,0.857,-1.23,-0.028,1.258,0.3295,0.357,0.182,0.15,0.401,0.0775,0.251,-0.3895,0.212
0.7945,1.645,0.8515,-1.22,-0.0285,1.2485,0.338,0.374,0.194,0.1555,0.4045,0.0785,0.2505,-0.406,0.2135
0.781,1.631,0.8505,-1.206,-0.035,1.241,0.3535,0.376,0.196,0.153,0.3955,0.0685,0.242,-0.4125,0.2095
0.78,1.64,0.861,-1.21,-0.0405,1.2505,0.3565,0.3875,0.205,0.162,0.4005,0.071,0.242,-0.404,0.2
0.7855,1.6575,0.8725,-1.2215,-0.044,1.2655,0.3555,0.4005,0.2145,0.165,0.4015,0.0685,0.2485,-0.396,0.1915
0.7985,1.674,0.876,-1.2365,-0.039,1.2755,0.3705,0.406,0.2235,0.1675,0.3995,0.0645,0.249,-0.389,0.1815
0.8,1.6635,0.8645,-1.2315,-0.0325,1.264,0.3865,0.4155,0.2335,0.172,0.402,0.0675,0.24,-0.394,0.1715
0.7925,1.6465,0.8545,-1.2195,-0.0315,1.2505,0.388,0.4005,0.233,0.1735,0.3985,0.062,0.238,-0.4015,0.162
0.7915,1.6385,0.848,-1.215,-0.0285,1.2435,0.3855,0.3875,0.231,0.18,0.4015,0.0665,0.2435,-0.415,0.163
0.779,1.6355,0.857,-1.2075,-0.0395,1.2465,0.3815,0.4065,0.2425,0.1895,0.4095,0.072,0.2425,-0.419,0.168
0.7915,1.67,0.879,-1.2305,-0.044,1.275,0.3685,0.4125,0.2585,0.207,0.4215,0.0765,0.2495,-0.3935,0.17
0.805,1.6875,0.8835,-1.246,-0.0395,1.2855,0.359,0.4035,0.2665,0.2245,0.439,0.0905,0.2655,-0.3875,0.1755
0.8035,1.6595,0.8565,-1.231,-0.027,1.2585,0.353,0.393,0.2735,0.242,0.4575,0.104,0.274,-0.4,0.183
0.8,1.634,0.835,-1.217,-0.0175,1.2345,0.3605,0.3875,0.29,0.2665,0.4765,0.1175,0.273,-0.4115,0.1775
0.7985,1.647,0.849,-1.2225,-0.0255,1.248,0.359,0.373,0.293,0.2785,0.485,0.122,0.284,-0.398,0.1805
0.8025,1.6695,0.8675,-1.236,-0.033,1.269,0.342,0.3565,0.296,0.2945,0.497,0.126,0.3025,-0.375,0.208
0.8135,1.71,0.897,-1.262,-0.042,1.3035,0.3225,0.3455,0.3055,0.3155,0.511,0.1335,0.319,-0.3575,0.232
0.8265,1.741,0.9155,-1.284,-0.0445,1.3285,0.298,0.3325,0.317,0.3425,0.5335,0.146,0.34,-0.3575,0.2475
0.83,1.7275,0.8985,-1.279,-0.0345,1.3135,0.262,0.309,0.3255,0.376,0.566,0.1725,0.362,-0.3795,0.273
0.85,1.731,0.881,-1.2905,-0.016,1.306,0.227,0.28,0.331,0.4135,0.6005,0.2045,0.3895,-0.3695,0.3125
0.8565,1.735,0.8785,-1.2955,-0.011,1.307,0.177,0.227,0.3135,0.433,0.621,0.221,0.409,-0.354,0.367
0.8545,1.7465,0.892,-1.3005,-0.019,1.3195,0.103,0.143,0.2665,0.4305,0.629,0.233,0.4275,-0.3415,0.431
0.8625,1.7655,0.9035,-1.314,-0.0205,1.3345,0.0575,0.0735,0.222,0.4265,0.636,0.239,0.447,-0.327,0.479
0.881,1.775,0.8945,-1.328,-0.007,1.335,0.0105,-0.005,0.184,0.4395,0.6595,0.2605,0.468,-0.329,0.534
0.912,1.819,0.9075,-1.3655,0.002,1.3635,-0.0375,-0.0615,0.1845,0.489,0.713,0.308,0.5085,-0.2995,0.5685
0.926,1.869,0.9435,-1.3975,-0.009,1.4065,-0.0915,-0.125,0.1685,0.519,0.7505,0.3365,0.546,-0.268,0.5985
0.9315,1.8735,0.943,-1.4025,-0.006,1.4085,-0.1475,-0.2085,0.143,0.555,0.793,0.375,0.579,-0.268,0.6375
0.9355,1.8695,0.935,-1.4025,0.0,1.4025,-0.215,-0.273,0.131,0.6025,0.85,0.422,0.6165,-0.2535,0.6765
0.943,1.8655,0.9225,-1.4045,0.01,1.3945,-0.2785,-0.3195,0.1235,0.641,0.898,0.4585,0.6505,-0.2525,0.726
0.955,1.8855,0.931,-1.42,0.0115,1.4085,-0.3065,-0.3245,0.139,0.691,0.9475,0.4955,0.686,-0.2445,0.749
0.9675,1.891,0.924,-1.4295,0.0215,1.4075,-0.3775,-0.3715,0.1275,0.7305,0.996,0.5365,0.728,-0.246,0.7875
0.994,1.895,0.9015,-1.4445,0.046,1.3985,-0.453,-0.419,0.1195,0.7665,1.041,0.58,0.7645,-0.248,0.8345
1.0245,1.9445,0.9205,-1.4845,0.052,1.4325,-0.4985,-0.456,0.0885,0.775,1.068,0.605,0.7935,-0.228,0.8865
1.055,1.9845,0.93,-1.5195,0.062,1.4575,-0.5675,-0.5245,0.05,0.7875,1.1015,0.6375,0.8365,-0.2195,0.936
1.0755,1.9905,0.9155,-1.533,0.0795,1.4535,-0.655,-0.599,0.0295,0.8265,1.1595,0.6925,0.8935,-0.189,0.986
1.098,1.996,0.8985,-1.547,0.0995,1.4475,-0.7295,-0.694,-0.013,0.8475,1.2055,0.74,0.9415,-0.1695,1.05
1.122,1.996,0.874,-1.559,0.124,1.435,-0.802,-0.7665,-0.0425,0.8675,1.2445,0.7795,0.984,-0.186,1.1035
1.1505,1.987,0.837,-1.569,0.1565,1.4125,-0.895,-0.802,-0.0445,0.9075,1.2995,0.832,1.039,-0.188,1.152
1.19,1.9975,0.808,-1.594,0.191,1.403,-0.995,-0.859,-0.072,0.9195,1.339,0.879,1.0915,-0.1765,1.193
1.22,2.0155,0.796,-1.618,0.2115,1.406,-1.0805,-0.9455,-0.1325,0.9075,1.363,0.9155,1.1315,-0.175,1.245
1.2675,2.0405,0.7735,-1.654,0.247,1.407,-1.167,-0.99,-0.164,0.9155,1.405,0.968,1.188,-0.1645,1.312
1.312,2.0435,0.732,-1.6775,0.29,1.388,-1.2575,-1.0255,-0.194,0.918,1.4455,1.018,1.244,-0.1595,1.374
1.3555,2.0535,0.6985,-1.7045,0.328,1.3765,-1.3295,-1.056,-0.2195,0.9275,1.4855,1.0675,1.29,-0.1605,1.4265
1.402,2.044,0.6425,-1.723,0.3795,1.3435,-1.39,-1.059,-0.2095,0.9525,1.5305,1.1205,1.3385,-0.1875,1.481
1.4335,2.0655,0.633,-1.7495,0.4,1.3495,-1.465,-1.0895,-0.2155,0.963,1.557,1.151,1.3765,-0.1925,1.5155
1.464,2.1135,0.65,-1.789,0.407,1.382,-1.515,-1.0845,-0.205,0.9815,1.5865,1.181,1.411,-0.1635,1.531
1.481,2.0995,0.6185,-1.79,0.431,1.359,-1.5215,-1.028,-0.1605,1.0145,1.6225,1.217,1.4415,-0.1645,1.5355
1.514,2.1025,0.5885,-1.8085,0.4625,1.3455,-1.526,-0.9975,-0.137,1.025,1.639,1.242,1.471,-0.1775,1.5335
1.5385,2.1025,0.5645,-1.8205,0.4865,1.3335,-1.5065,-0.9585,-0.119,1.024,1.651,1.264,1.49,-0.1785,1.527
1.535,2.0665,0.532,-1.8005,0.501,1.2995,-1.466,-0.88,-0.057,1.064,1.685,1.2975,1.5085,-0.1965,1.492
1.5325,2.049,0.5165,-1.791,0.5075,1.283,-1.4325,-0.8395,-0.029,1.0675,1.684,1.2995,1.509,-0.2105,1.4585
1.5295,2.0385,0.51,-1.784,0.5095,1.2745,-1.4015,-0.815,-0.0475,1.0165,1.6405,1.267,1.484,-0.224,1.4375
1.5315,2.015,0.484,-1.7735,0.5235,1.25,-1.3645,-0.7675,-0.0335,1.001,1.622,1.252,1.4795,-0.257,1.4165
1.535,1.992,0.4575,-1.7635,0.5385,1.225,-1.323,-0.7195,-0.0275,0.982,1.604,1.2345,1.4705,-0.266,1.4055
1.5415,1.974,0.433,-1.758,0.554,1.204,-1.2805,-0.6785,-0.071,0.8945,1.5405,1.195,1.434,-0.285,1.397
1.5315,1.9465,0.4155,-1.739,0.558,1.181,-1.211,-0.663,-0.136,0.7825,1.46,1.144,1.381,-0.3105,1.3865
1.5105,1.924,0.414,-1.717,0.548,1.1695,-1.1365,-0.669,-0.2405,0.623,1.3475,1.0725,1.306,-0.311,1.3855
1.4875,1.891,0.4045,-1.6895,0.541,1.148,-1.0615,-0.656,-0.352,0.4315,1.201,0.98,1.211,-0.335,1.3805
1.443,1.836,0.393,-1.6395,0.5245,1.115,-0.9745,-0.6215,-0.403,0.304,1.0885,0.8985,1.126,-0.372,1.357
1.3995,1.81,0.411,-1.605,0.494,1.1105,-0.9165,-0.6225,-0.4705,0.1705,0.969,0.8145,1.0355,-0.3795,1.337
1.364,1.796,0.4325,-1.58,0.465,1.1145,-0.8525,-0.634,-0.531,0.0555,0.8585,0.7325,0.948,-0.378,1.322
1.334,1.8005,0.4665,-1.567,0.4335,1.1335,-0.821,-0.6295,-0.572,-0.034,0.7665,0.6585,0.879,-0.3605,1.304
1.2985,1.795,0.497,-1.5465,0.4005,1.146,-0.816,-0.64,-0.643,-0.155,0.6475,0.569,0.795,-0.3655,1.2785
1.2545,1.78,0.526,-1.517,0.364,1.1535,-0.764,-0.6615,-0.7085,-0.2545,0.5505,0.4975,0.717,-0.375,1.255
1.2105,1.772,0.562,-1.491,0.324,1.167,-0.704,-0.686,-0.757,-0.3175,0.4865,0.444,0.654,-0.3595,1.2295
1.1625,1.746,0.584,-1.454,0.289,1.1655,-0.658,-0.701,-0.7725,-0.354,0.429,0.385,0.592,-0.362,1.192
1.156,1.7415,0.586,-1.449,0.285,1.1645,-0.59,-0.663,-0.7355,-0.348,0.4045,0.352,0.56,-0.361,1.1465
1.1595,1.7375,0.5785,-1.4485,0.29,1.1585,-0.4945,-0.5905,-0.674,-0.3305,0.385,0.322,0.5295,-0.3635,1.0895
1.128,1.7335,0.6055,-1.4305,0.261,1.1695,-0.4315,-0.5485,-0.6385,-0.328,0.355,0.282,0.4965,-0.351,1.0405
1.103,1.7345,0.632,-1.4185,0.2355,1.183,-0.393,-0.5105,-0.6055,-0.322,0.3335,0.249,0.4715,-0.328,1.007
1.079,1.704,0.6255,-1.3915,0.2265,1.165,-0.3295,-0.456,-0.557,-0.3085,0.314,0.2195,0.441,-0.3425,0.9645
1.048,1.6725,0.625,-1.36,0.211,1.149,-0.2555,-0.4165,-0.522,-0.2985,0.297,0.193,0.4075,-0.347,0.918
1.003,1.6235,0.621,-1.3135,0.1905,1.1225,-0.1825,-0.363,-0.4795,-0.2885,0.277,0.161,0.368,-0.3625,0.8805
0.973,1.561,0.5885,-1.267,0.192,1.075,-0.1015,-0.2975,-0.4335,-0.271,0.2635,0.133,0.334,-0.4105,0.8375
0.9435,1.574,0.631,-1.2585,0.156,1.1025,-0.0315,-0.2385,-0.391,-0.259,0.2445,0.094,0.2965,-0.4065,0.793
0.912,1.615,0.704,-1.2635,0.104,1.16,0.012,-0.181,-0.3495,-0.243,0.2365,0.072,0.2735,-0.387,0.745
0.894,1.633,0.739,-1.2635,0.0775,1.1865,0.0535,-0.1355,-0.315,-0.225,0.234,0.059,0.245,-0.375,0.696
0.856,1.6475,0.792,-1.2515,0.0315,1.22,0.099,-0.1065,-0.271,-0.198,0.234,0.0395,0.212,-0.3545,0.6505
0.8425,1.6595,0.8175,-1.251,0.012,1.239,0.1325,-0.0595,-0.2295,-0.171,0.24,0.031,0.196,-0.35,0.6055
0.8115,1.66,0.849,-1.2355,-0.019,1.255,0.159,-0.0205,-0.197,-0.155,0.235,0.011,0.176,-0.3425,0.559
0.7875,1.659,0.872,-1.223,-0.0425,1.266,0.1895,0.0135,-0.161,-0.1335,0.239,0.0025,0.1655,-0.3375,0.5245
0.801,1.658,0.8575,-1.2295,-0.0285,1.258,0.221,0.052,-0.133,-0.1135,0.2455,0.0,0.1665,-0.342,0.5
0.7825,1.6315,0.85,-1.207,-0.034,1.241,0.2495,0.093,-0.0955,-0.084,0.2615,0.006,0.17,-0.363,0.4765
0.786,1.6255,0.8395,-1.2055,-0.027,1.233,0.2765,0.151,-0.0465,-0.054,0.278,0.015,0.1625,-0.369,0.452
0.7925,1.633,0.841,-1.213,-0.0245,1.237,0.296,0.1785,-0.018,-0.0345,0.2825,0.0085,0.159,-0.3655,0.4355
0.7815,1.6335,0.8525,-1.2075,-0.036,1.243,0.3185,0.2125,0.014,-0.0105,0.2935,0.0085,0.1635,-0.376,0.4075
0.7685,1.6445,0.8765,-1.2065,-0.054,1.2605,0.34,0.234,0.0315,-0.005,0.2855,-0.007,0.152,-0.369,0.3715
0.767,1.655,0.889,-1.211,-0.0615,1.2725,0.356,0.2385,0.0305,-0.009,0.274,-0.0215,0.147,-0.3585,0.3585
0.7855,1.661,0.876,-1.223,-0.0455,1.2685,0.3695,0.2685,0.0575,0.0155,0.2905,-0.0085,0.1605,-0.363,0.3535
0.77,1.645,0.8755,-1.2075,-0.053,1.2605,0.367,0.279,0.075,0.0325,0.3005,-0.004,0.1605,-0.386,0.3435
0.762,1.6225,0.861,-1.192,-0.05,1.242,0.369,0.303,0.093,0.0445,0.3105,0.0035,0.166,-0.3925,0.329
0.7735,1.6245,0.851,-1.199,-0.039,1.238,0.3655,0.3165,0.1055,0.055,0.3225,0.014,0.181,-0.384,0.321
0.7635,1.6475,0.885,-1.2055,-0.061,1.2665,0.364,0.315,0.104,0.0535,0.319,0.0105,0.185,-0.377,0.3005
0.7545,1.672,0.918,-1.213,-0.082,1.295,0.3775,0.333,0.1215,0.063,0.32,0.0095,0.189,-0.351,0.2825
0.762,1.681,0.9195,-1.2215,-0.079,1.3005,0.3645,0.337,0.1315,0.074,0.3265,0.0145,0.198,-0.3515,0.279
0.7735,1.6585,0.8855,-1.216,-0.0565,1.2725,0.3885,0.356,0.146,0.0885,0.3405,0.0275,0.2035,-0.3825,0.2665
0.772,1.6435,0.8715,-1.208,-0.05,1.258,0.4155,0.369,0.1565,0.0965,0.349,0.034,0.2035,-0.3915,0.258
0.772,1.659,0.8875,-1.2155,-0.058,1.2735,0.4075,0.38,0.166,0.1035,0.3545,0.037,0.2115,-0.381,0.2495
0.7775,1.67,0.8925,-1.2235,-0.058,1.2815,0.4235,0.3855,0.1775,0.113,0.3605,0.042,0.212,-0.3845,0.233
0.788,1.6875,0.9,-1.2375,-0.0565,1.294,0.429,0.3755,0.174,0.1145,0.3605,0.0415,0.212,-0.382,0.224
0.8085,1.6925,0.8845,-1.2505,-0.038,1.2885,0.421,0.3835,0.176,0.114,0.361,0.041,0.2195,-0.379,0.2275
0.807,1.6905,0.8835,-1.2485,-0.0385,1.287,0.4155,0.3985,0.1865,0.12,0.3665,0.0425,0.22,-0.375,0.224
0.7905,1.69,0.9,-1.2405,-0.055,1.2955,0.4215,0.4125,0.2025,0.137,0.381,0.0505,0.219,-0.3765,0.214
0.7865,1.673,0.887,-1.23,-0.0505,1.28,0.43,0.416,0.2085,0.1445,0.387,0.0535,0.2245,-0.3905,0.2155
0.7885,1.6695,0.881,-1.229,-0.0465,1.2755,0.4345,0.4275,0.215,0.148,0.3885,0.054,0.227,-0.3825,0.2085
0.784,1.6715,0.888,-1.2275,-0.052,1.28,0.4295,0.421,0.2085,0.138,0.3755,0.0445,0.2205,-0.382,0.2055
0.7865,1.6685,0.8825,-1.2275,-0.0485,1.2755,0.429,0.4055,0.201,0.1385,0.3765,0.0465,0.227,-0.3855,0.208
0.7955,1.6565,0.8615,-1.226,-0.033,1.2595,0.4535,0.436,0.2275,0.168,0.4065,0.074,0.2445,-0.387,0.208
0.8055,1.6525,0.8475,-1.229,-0.021,1.25,0.456,0.4485,0.236,0.1675,0.4025,0.0725,0.2435,-0.3985,0.206
0.8045,1.658,0.854,-1.231,-0.025,1.256,0.4455,0.429,0.2245,0.1535,0.388,0.0615,0.236,-0.4085,0.199
0.7835,1.656,0.873,-1.22,-0.045,1.265,0.4445,0.4265,0.216,0.1485,0.3855,0.056,0.233,-0.4145,0.198
0.7855,1.6515,0.8665,-1.2185,-0.041,1.2595,0.442,0.4395,0.226,0.1555,0.3895,0.057,0.234,-0.426,0.199
0.784,1.6455,0.862,-1.2145,-0.039,1.2535,0.4465,0.4485,0.239,0.1635,0.395,0.061,0.23,-0.414,0.2
0.7725,1.653,0.8815,-1.213,-0.0545,1.2675,0.447,0.4455,0.2325,0.158,0.3905,0.053,0.221,-0.3985,0.207
0.769,1.652,0.8835,-1.2105,-0.0575,1.2675,0.4515,0.4465,0.2305,0.1575,0.39,0.05,0.213,-0.39,0.208
0.7675,1.6515,0.8845,-1.2095,-0.059,1.268,0.4495,0.442,0.2295,0.1545,0.3875,0.0475,0.2085,-0.3825,0.2005
0.766,1.666,0.9,-1.216,-0.0675,1.283,0.446,0.4325,0.224,0.153,0.386,0.0485,0.205,-0.3845,0.2045
0.765,1.668,0.9035,-1.2165,-0.0695,1.286,0.4515,0.446,0.2315,0.1575,0.3885,0.052,0.204,-0.378,0.2115
0.758,1.6545,0.897,-1.206,-0.07,1.276,0.4495,0.451,0.233,0.1585,0.387,0.055,0.2075,-0.393,0.21
0.7615,1.668,0.907,-1.215,-0.073,1.288,0.4505,0.4375,0.227,0.1535,0.3845,0.055,0.208,-0.3875,0.1995
0.7675,1.6825,0.9155,-1.225,-0.0745,1.2995,0.4415,0.435,0.222,0.1455,0.3785,0.047,0.2075,-0.383,0.189
0.7545,1.6645,0.9105,-1.2095,-0.078,1.2875,0.448,0.442,0.2235,0.148,0.3775,0.0485,0.2055,-0.399,0.1815
0.7515,1.654,0.9035,-1.203,-0.076,1.279,0.4585,0.442,0.2285,0.1505,0.381,0.051,0.2065,-0.407,0.175
0.762,1.6665,0.905,-1.214,-0.072,1.286,0.4515,0.4445,0.2255,0.148,0.378,0.049,0.2125,-0.393,0.1795
0.7705,1.6805,0.9105,-1.226,-0.07,1.296,0.4515,0.4495,0.229,0.153,0.382,0.051,0.22,-0.371,0.182
0.773,1.6875,0.9145,-1.2305,-0.071,1.301,0.446,0.445,0.2325,0.1565,0.3855,0.052,0.225,-0.381,0.181
0.7785,1.696,0.918,-1.237,-0.07,1.307,0.443,0.4465,0.2365,0.1595,0.3865,0.052,0.2265,-0.378,0.1795
0.774,1.693,0.919,-1.2335,-0.0725,1.306,0.4495,0.442,0.235,0.1555,0.382,0.0465,0.2215,-0.3675,0.1765
0.783,1.701,0.9185,-1.242,-0.068,1.31,0.4545,0.4485,0.233,0.1535,0.378,0.045,0.2235,-0.366,0.1835
0.787,1.6885,0.902,-1.2375,-0.058,1.2955,0.461,0.457,0.2415,0.1615,0.3835,0.046,0.2225,-0.386,0.1875
0.78,1.662,0.8825,-1.221,-0.0515,1.2725,0.465,0.4605,0.249,0.1685,0.389,0.046,0.2175,-0.3995,0.185
0.767,1.6465,0.8805,-1.207,-0.057,1.2635,0.456,0.4575,0.247,0.164,0.383,0.0355,0.209,-0.3795,0.185
0.752,1.6245,0.8725,-1.188,-0.0605,1.2485,0.457,0.4515,0.245,0.161,0.3775,0.0265,0.196,-0.3765,0.186
0.757,1.644,0.8875,-1.2005,-0.0655,1.266,0.4465,0.4515,0.2435,0.1605,0.3765,0.025,0.198,-0.384,0.194
0.7615,1.6715,0.911,-1.2165,-0.075,1.2915,0.4485,0.4475,0.241,0.1595,0.3755,0.0245,0.2005,-0.375,0.1965
0.7705,1.68,0.91,-1.2255,-0.07,1.2955,0.467,0.457,0.2455,0.166,0.3795,0.032,0.21,-0.363,0.193
0.7675,1.682,0.915,-1.2245,-0.074,1.2985,0.456,0.4585,0.247,0.165,0.379,0.033,0.2185,-0.3645,0.197
0.7585,1.663,0.9045,-1.211,-0.073,1.284,0.4615,0.458,0.252,0.167,0.3805,0.0415,0.218,-0.3805,0.196
0.76,1.6515,0.8925,-1.2055,-0.0665,1.2725,0.4665,0.4575,0.252,0.1705,0.385,0.0515,0.2255,-0.392,0.196
0.7745,1.664,0.89,-1.219,-0.058,1.277,0.463,0.458,0.255,0.177,0.392,0.0575,0.2325,-0.3905,0.197
0.787,1.672,0.8855,-1.2295,-0.0495,1.279,0.462,0.4645,0.262,0.1865,0.4015,0.0655,0.2395,-0.3955,0.1925
0.7725,1.6645,0.8925,-1.2185,-0.0605,1.279,0.4685,0.47,0.2685,0.188,0.4035,0.0615,0.24,-0.391,0.189
0.763,1.657,0.8945,-1.2095,-0.066,1.276,0.4805,0.4705,0.267,0.184,0.398,0.056,0.2305,-0.3895,0.193
0.7715,1.659,0.888,-1.2155,-0.0585,1.274,0.477,0.4645,0.26,0.1835,0.401,0.0625,0.2305,-0.388,0.191
0.775,1.6575,0.883,-1.216,-0.054,1.27,0.473,0.476,0.2695,0.187,0.405,0.0665,0.232,-0.388,0.19
0.769,1.644,0.8755,-1.2065,-0.0535,1.26,0.4735,0.4735,0.2675,0.188,0.4065,0.0705,0.235,-0.401,0.195
0.7675,1.6415,0.8745,-1.2045,-0.0535,1.2585,0.4675,0.462,0.2635,0.185,0.409,0.073,0.2345,-0.4055,0.189
0.776,1.645,0.8695,-1.2105,-0.047,1.2575,0.458,0.4735,0.268,0.185,0.409,0.0745,0.2335,-0.41,0.19
0.7765,1.6485,0.8725,-1.2125,-0.0485,1.261,0.4695,0.477,0.2705,0.191,0.4195,0.086,0.2425,-0.3985,0.1885
0.773,1.655,0.8825,-1.214,-0.055,1.269,0.464,0.4615,0.267,0.1885,0.419,0.0865,0.245,-0.3925,0.185
0.774,1.66,0.8865,-1.217,-0.0565,1.2735,0.4585,0.464,0.2655,0.187,0.4185,0.088,0.246,-0.3895,0.1835
0.771,1.6725,0.902,-1.222,-0.0655,1.2875,0.4685,0.4685,0.2695,0.19,0.421,0.09,0.244,-0.38,0.181
0.777,1.6715,0.8945,-1.224,-0.059,1.2835,0.4645,0.4675,0.2655,0.1865,0.4135,0.085,0.2485,-0.387,0.1855
0.771,1.6525,0.882,-1.212,-0.0555,1.2675,0.4765,0.482,0.27,0.1885,0.4185,0.089,0.252,-0.3915,0.191
0.7635,1.6235,0.8605,-1.1935,-0.049,1.2425,0.4935,0.4945,0.2865,0.204,0.432,0.0995,0.2545,-0.4135,0.1865
0.76,1.623,0.8635,-1.1915,-0.052,1.2435,0.49,0.494,0.2915,0.2055,0.4295,0.098,0.2545,-0.413,0.1795
0.785,1.709,0.925,-1.247,-0.07,1.317,0.4615,0.4735,0.268,0.179,0.404,0.073,0.2555,-0.3605,0.182
0.7875,1.7305,0.943,-1.259,-0.078,1.337,0.4525,0.4575,0.2525,0.1655,0.393,0.062,0.257,-0.3455,0.18
0.757,1.673,0.9165,-1.215,-0.08,1.2945,0.473,0.4745,0.2685,0.18,0.4055,0.071,0.247,-0.3635,0.1735
0.7645,1.6485,0.8845,-1.2065,-0.0605,1.2665,0.4705,0.492,0.285,0.1945,0.4155,0.077,0.25,-0.388,0.178
0.767,1.6445,0.878,-1.2055,-0.056,1.2615,0.4595,0.4805,0.277,0.188,0.4095,0.068,0.247,-0.3915,0.186
0.7875,1.658,0.8705,-1.223,-0.042,1.2645,0.4715,0.488,0.282,0.194,0.415,0.0725,0.2445,-0.3865,0.181
0.7865,1.651,0.865,-1.2185,-0.0395,1.2585,0.487,0.503,0.2955,0.2035,0.423,0.0785,0.2455,-0.4015,0.18
0.777,1.6745,0.898,-1.2255,-0.0605,1.2865,0.479,0.48,0.2755,0.1865,0.406,0.0605,0.2395,-0.3865,0.186
0.7705,1.695,0.9245,-1.2325,-0.0775,1.31,0.4595,0.4705,0.2685,0.177,0.3955,0.048,0.2305,-0.3745,0.1815
0.748,1.685,0.938,-1.2165,-0.095,1.3115,0.4595,0.4705,0.2655,0.172,0.3875,0.0385,0.22,-0.3785,0.183
0.7535,1.6905,0.938,-1.222,-0.0925,1.3145,0.452,0.4655,0.256,0.1645,0.3805,0.0345,0.218,-0.3645,0.1885
0.7565,1.6755,0.9195,-1.216,-0.082,1.298,0.4555,0.4685,0.2665,0.1735,0.3895,0.0455,0.216,-0.3605,0.185
0.7665,1.669,0.903,-1.2175,-0.0685,1.286,0.489,0.479,0.2815,0.1915,0.4035,0.058,0.216,-0.3655,0.1865
0.7795,1.6635,0.8845,-1.2215,-0.053,1.2745,0.499,0.501,0.2945,0.201,0.4135,0.0695,0.22,-0.3845,0.19
0.7775,1.652,0.875,-1.215,-0.049,1.264,0.491,0.491,0.2875,0.196,0.4135,0.074,0.2265,-0.3985,0.191
0.763,1.6615,0.8995,-1.2125,-0.0685,1.281,0.4735,0.479,0.2785,0.1895,0.407,0.069,0.2265,-0.3685,0.197
0.775,1.6855,0.911,-1.2305,-0.0685,1.2985,0.459,0.4885,0.283,0.1905,0.406,0.068,0.233,-0.333,0.197
0.7955,1.7075,0.9125,-1.2515,-0.0585,1.31,0.465,0.489,0.282,0.1925,0.4075,0.0735,0.242,-0.34,0.189
0.785,1.713,0.9285,-1.249,-0.072,1.321,0.469,0.4915,0.287,0.1965,0.412,0.081,0.2415,-0.351,0.182
0.789,1.713,0.925,-1.251,-0.0685,1.3195,0.47,0.498,0.2985,0.2025,0.418,0.0875,0.245,-0.357,0.168
0.7825,1.708,0.926,-1.2455,-0.072,1.3175,0.4795,0.502,0.2965,0.204,0.4205,0.089,0.247,-0.375,0.1605
0.7675,1.6835,0.9165,-1.2255,-0.075,1.3005,0.483,0.4985,0.292,0.2005,0.4175,0.085,0.245,-0.387,0.159
0.762,1.672,0.911,-1.217,-0.0745,1.292,0.4805,0.499,0.293,0.201,0.4155,0.0835,0.2425,-0.3995,0.1505
0.7555,1.669,0.914,-1.212,-0.0795,1.292,0.4805,0.4925,0.29,0.202,0.4185,0.084,0.2415,-0.404,0.1455
0.758,1.648,0.891,-1.203,-0.0665,1.27,0.477,0.499,0.298,0.2055,0.4245,0.0885,0.2395,-0.4085,0.15
0.7595,1.652,0.893,-1.2055,-0.067,1.273,0.4795,0.5035,0.301,0.208,0.426,0.09,0.237,-0.401,0.15
0.769,1.6635,0.895,-1.216,-0.0635,1.2795,0.4835,0.499,0.2975,0.207,0.424,0.087,0.235,-0.3935,0.1565
0.7745,1.654,0.88,-1.2145,-0.053,1.2675,0.4755,0.51,0.3055,0.211,0.427,0.09,0.2375,-0.395,0.166
0.7655,1.67,0.905,-1.2175,-0.07,1.2875,0.47,0.4955,0.298,0.202,0.4175,0.0805,0.234,-0.387,0.166
0.7615,1.6735,0.9125,-1.2175,-0.076,1.2935,0.472,0.493,0.2915,0.198,0.415,0.0765,0.2375,-0.381,0.1755
0.767,1.6555,0.8885,-1.2115,-0.061,1.2725,0.475,0.511,0.302,0.2095,0.4255,0.083,0.244,-0.3835,0.1775
0.76,1.673,0.913,-1.2165,-0.077,1.2935,0.475,0.5055,0.2985,0.203,0.4155,0.068,0.234,-0.3695,0.171
0.7585,1.6825,0.9245,-1.2205,-0.0835,1.304,0.4825,0.496,0.2915,0.1955,0.408,0.059,0.228,-0.3635,0.1725
0.771,1.7115,0.9405,-1.2415,-0.085,1.3265,0.4795,0.4945,0.293,0.1965,0.408,0.0615,0.2345,-0.345,0.175
0.7635,1.7195,0.9565,-1.2415,-0.0965,1.3385,0.466,0.4955,0.294,0.1965,0.4055,0.062,0.2435,-0.335,0.1785
0.767,1.694,0.9275,-1.2305,-0.0805,1.311,0.4755,0.501,0.298,0.1965,0.401,0.0625,0.2375,-0.358,0.178
0.777,1.6965,0.92,-1.237,-0.072,1.3085,0.4755,0.505,0.301,0.1975,0.3995,0.066,0.237,-0.3535,0.179
0.7775,1.6855,0.9085,-1.2315,-0.066,1.297,0.476,0.4955,0.297,0.1955,0.3995,0.068,0.2425,-0.3465,0.1805
0.781,1.6915,0.911,-1.236,-0.065,1.3015,0.484,0.5045,0.302,0.197,0.4015,0.0685,0.2395,-0.3465,0.1745
0.7775,1.7025,0.9255,-1.24,-0.074,1.314,0.4785,0.509,0.304,0.2,0.402,0.0695,0.2415,-0.354,0.175
0.774,1.7015,0.9275,-1.2375,-0.077,1.3145,0.4755,0.5045,0.3015,0.1985,0.399,0.0675,0.241,-0.3525,0.173
0.757,1.7035,0.947,-1.2305,-0.0955,1.3255,0.484,0.515,0.31,0.205,0.4065,0.074,0.2405,-0.3525,0.158
0.768,1.702,0.9345,-1.235,-0.0835,1.3185,0.485,0.5235,0.3175,0.2115,0.414,0.08,0.251,-0.3655,0.1555
0.7715,1.6935,0.922,-1.2325,-0.0755,1.308,0.476,0.524,0.3175,0.2155,0.4155,0.0805,0.2555,-0.374,0.1555
0.763,1.7055,0.943,-1.2345,-0.09,1.3245,0.484,0.52,0.3205,0.22,0.42,0.087,0.257,-0.3635,0.154
0.7755,1.721,0.946,-1.248,-0.0855,1.3335,0.4875,0.5135,0.315,0.2145,0.4155,0.084,0.256,-0.3505,0.1625
0.7695,1.723,0.954,-1.246,-0.0925,1.3385,0.4665,0.506,0.3055,0.206,0.4075,0.0775,0.2545,-0.3435,0.166
0.771,1.6855,0.915,-1.2285,-0.072,1.3005,0.4745,0.534,0.33,0.225,0.4245,0.095,0.257,-0.3655,0.167
0.77,1.655,0.8855,-1.2125,-0.058,1.2705,0.5015,0.5375,0.337,0.234,0.436,0.1045,0.254,-0.398,0.164
0.7755,1.685,0.91,-1.2305,-0.0675,1.2975,0.505,0.5375,0.3335,0.229,0.4335,0.1035,0.2585,-0.38,0.1655
0.7805,1.697,0.917,-1.2385,-0.0685,1.307,0.49,0.5465,0.34,0.232,0.436,0.105,0.2585,-0.3665,0.169
0.7875,1.712,0.9255,-1.25,-0.069,1.319,0.482,0.5325,0.332,0.2255,0.4305,0.1,0.2595,-0.3795,0.165
0.787,1.711,0.924,-1.249,-0.0685,1.318,0.4885,0.535,0.329,0.225,0.432,0.103,0.261,-0.3845,0.1575
0.7775,1.7155,0.9385,-1.2465,-0.081,1.327,0.4745,0.531,0.33,0.2265,0.4345,0.103,0.2575,-0.3485,0.159
0.789,1.7185,0.93,-1.254,-0.0705,1.3245,0.4795,0.536,0.333,0.2295,0.4365,0.1045,0.261,-0.3275,0.159
0.7895,1.7025,0.913,-1.246,-0.062,1.308,0.483,0.548,0.343,0.2425,0.45,0.1175,0.267,-0.336,0.154
0.782,1.6755,0.894,-1.2285,-0.056,1.285,0.489,0.561,0.3645,0.263,0.47,0.1365,0.28,-0.3515,0.1615
0.7515,1.623,0.872,-1.1875,-0.0605,1.248,0.5055,0.5605,0.3625,0.2565,0.4595,0.1275,0.269,-0.3715,0.1555
0.733,1.6445,0.9115,-1.1885,-0.0895,1.2785,0.488,0.542,0.34,0.228,0.427,0.098,0.2495,-0.3455,0.1485
0.7495,1.681,0.932,-1.2155,-0.091,1.3065,0.4805,0.5465,0.3425,0.229,0.4285,0.1005,0.2595,-0.3365,0.151
0.75,1.698,0.9485,-1.224,-0.0995,1.3235,0.4785,0.546,0.3435,0.2315,0.4315,0.1025,0.2655,-0.3205,0.1545
0.7505,1.6995,0.9495,-1.225,-0.1,1.3245,0.483,0.543,0.3435,0.23,0.4305,0.1015,0.267,-0.3175,0.157
0.7665,1.7115,0.9455,-1.239,-0.09,1.3285,0.4945,0.554,0.3485,0.2315,0.4325,0.105,0.2655,-0.332,0.156
0.788,1.7375,0.9505,-1.2625,-0.0815,1.3445,0.4885,0.5565,0.346,0.232,0.4315,0.1035,0.2695,-0.3145,0.174
0.7815,1.7175,0.9365,-1.2495,-0.078,1.3275,0.484,0.554,0.3465,0.234,0.4325,0.103,0.275,-0.3325,0.1735
0.7775,1.707,0.93,-1.242,-0.0765,1.3185,0.492,0.571,0.3635,0.2445,0.444,0.1115,0.2765,-0.349,0.1545
0.793,1.6925,0.9005,-1.2425,-0.054,1.2965,0.5095,0.587,0.3805,0.258,0.453,0.12,0.281,-0.3645,0.1505
0.7885,1.7305,0.9425,-1.2595,-0.0775,1.3365,0.4935,0.5715,0.364,0.2405,0.435,0.1035,0.277,-0.333,0.147
0.7775,1.7705,0.9935,-1.274,-0.1085,1.3825,0.4645,0.5515,0.3455,0.224,0.4215,0.0875,0.2655,-0.3025,0.145
0.779,1.763,0.9845,-1.271,-0.103,1.374,0.4555,0.544,0.344,0.2255,0.4235,0.088,0.2645,-0.3135,0.144
0.794,1.7595,0.966,-1.277,-0.0865,1.363,0.4585,0.56,0.361,0.239,0.4365,0.1005,0.273,-0.316,0.132
0.7765,1.746,0.97,-1.2615,-0.097,1.3585,0.478,0.5685,0.362,0.2375,0.4315,0.0935,0.2585,-0.3175,0.121
0.7685,1.7575,0.99,-1.263,-0.111,1.374,0.4805,0.565,0.3525,0.2275,0.4215,0.083,0.2575,-0.31,0.122
0.785,1.748,0.963,-1.2665,-0.0895,1.3555,0.486,0.576,0.3675,0.244,0.439,0.1,0.2745,-0.3315,0.126
0.7915,1.739,0.948,-1.2655,-0.0785,1.3435,0.4955,0.583,0.3815,0.2605,0.4545,0.115,0.283,-0.337,0.124
0.787,1.743,0.9565,-1.265,-0.085,1.35,0.496,0.59,0.3855,0.262,0.4545,0.114,0.284,-0.319,0.125
0.775,1.731,0.956,-1.253,-0.0905,1.344,0.4975,0.5975,0.391,0.265,0.4595,0.117,0.28,-0.311,0.129
0.7775,1.7295,0.9525,-1.2535,-0.0875,1.341,0.499,0.6015,0.3955,0.2705,0.466,0.123,0.2805,-0.316,0.1285
0.7785,1.71,0.9325,-1.244,-0.0775,1.3215,0.5045,0.606,0.3955,0.2705,0.468,0.1245,0.2785,-0.3275,0.13
0.7715,1.682,0.911,-1.227,-0.07,1.297,0.505,0.6135,0.4,0.271,0.468,0.1225,0.272,-0.337,0.1315
0.7605,1.6965,0.9365,-1.2285,-0.0885,1.317,0.504,0.616,0.4005,0.2685,0.4645,0.118,0.263,-0.329,0.131
0.7555,1.7195,0.9645,-1.238,-0.1045,1.3425,0.499,0.6045,0.3955,0.2675,0.4655,0.1175,0.262,-0.3055,0.1245
0.753,1.7185,0.966,-1.236,-0.1065,1.3425,0.5075,0.605,0.398,0.268,0.4675,0.119,0.2625,-0.308,0.121
0.7545,1.722,0.9675,-1.238,-0.1065,1.345,0.515,0.611,0.4005,0.271,0.473,0.1255,0.2655,-0.324,0.1175
0.7535,1.717,0.9645,-1.2355,-0.1055,1.341,0.5055,0.6065,0.392,0.2645,0.4675,0.1195,0.2625,-0.3135,0.114
0.758,1.7185,0.961,-1.2385,-0.1015,1.34,0.5055,0.622,0.401,0.2595,0.456,0.1125,0.257,-0.3055,0.118
0.767,1.7255,0.959,-1.246,-0.096,1.342,0.499,0.6215,0.4035,0.2615,0.4535,0.1135,0.26,-0.32,0.1185
0.762,1.717,0.9555,-1.2395,-0.097,1.3365,0.5085,0.618,0.402,0.262,0.454,0.1195,0.266,-0.3235,0.113
0.7545,1.7085,0.9545,-1.2315,-0.1005,1.332,0.507,0.6285,0.4035,0.26,0.449,0.1205,0.264,-0.319,0.1085
0.748,1.706,0.9585,-1.2265,-0.1055,1.3325,0.501,0.6285,0.3975,0.254,0.4435,0.116,0.2605,-0.3215,0.1
0.759,1.716,0.9575,-1.238,-0.0995,1.337,0.505,0.6345,0.409,0.262,0.4505,0.121,0.267,-0.3265,0.0895
0.757,1.722,0.9655,-1.2395,-0.1045,1.344,0.5005,0.6185,0.399,0.2555,0.444,0.111,0.264,-0.313,0.092
0.7425,1.7285,0.987,-1.2355,-0.1225,1.358,0.518,0.631,0.4025,0.256,0.4445,0.109,0.263,-0.2925,0.0885
0.762,1.7595,0.998,-1.261,-0.118,1.379,0.5205,0.641,0.4165,0.2685,0.457,0.122,0.2705,-0.2795,0.084
0.774,1.7655,0.9915,-1.2695,-0.109,1.3785,0.505,0.6355,0.4125,0.2665,0.4585,0.125,0.2835,-0.2795,0.0935
0.763,1.7485,0.986,-1.256,-0.1115,1.3675,0.502,0.6525,0.4235,0.2745,0.4655,0.131,0.289,-0.281,0.1005
0.748,1.734,0.9865,-1.241,-0.1195,1.3605,0.5075,0.6515,0.43,0.2795,0.47,0.134,0.2795,-0.2775,0.0965
0.739,1.7305,0.992,-1.2345,-0.127,1.3615,0.506,0.649,0.4275,0.2765,0.468,0.1335,0.284,-0.2755,0.092
0.752,1.7465,0.995,-1.2495,-0.1215,1.371,0.506,0.6505,0.4275,0.2805,0.474,0.1405,0.296,-0.279,0.0975
0.761,1.7525,0.992,-1.2565,-0.1155,1.3725,0.5165,0.6605,0.433,0.283,0.477,0.142,0.295,-0.281,0.1
0.7645,1.754,0.99,-1.2595,-0.113,1.3725,0.5155,0.667,0.4375,0.2825,0.475,0.142,0.288,-0.2795,0.093
0.77,1.7585,0.9885,-1.2645,-0.1095,1.3735,0.5095,0.671,0.44,0.2855,0.478,0.148,0.289,-0.286,0.092
0.773,1.761,0.988,-1.267,-0.1075,1.3745,0.518,0.676,0.441,0.288,0.482,0.1525,0.2935,-0.291,0.0905
0.76,1.7445,0.985,-1.252,-0.113,1.365,0.514,0.6695,0.4395,0.289,0.4865,0.157,0.2935,-0.2875,0.085
0.7805,1.7635,0.9835,-1.272,-0.1015,1.3735,0.519,0.681,0.451,0.2975,0.4975,0.17,0.302,-0.2805,0.085
0.797,1.7895,0.993,-1.293,-0.098,1.3915,0.5215,0.6905,0.4595,0.3055,0.5075,0.179,0.307,-0.283,0.0875
0.7725,1.766,0.994,-1.2695,-0.111,1.38,0.512,0.6825,0.4505,0.298,0.5035,0.1765,0.3055,-0.2815,0.0955
0.7825,1.7745,0.993,-1.2785,-0.1055,1.384,0.5185,0.685,0.4455,0.29,0.497,0.1745,0.3105,-0.2695,0.0975
0.7735,1.785,1.012,-1.2795,-0.1195,1.399,0.5135,0.6705,0.4355,0.2825,0.491,0.168,0.2965,-0.255,0.096
0.7605,1.7795,1.02,-1.27,-0.13,1.4,0.523,0.6655,0.4335,0.281,0.49,0.1655,0.291,-0.257,0.0935
0.774,1.7875,1.014,-1.281,-0.12,1.401,0.513,0.678,0.443,0.286,0.4935,0.1675,0.3035,-0.2585,0.0905
0.7885,1.8025,1.014,-1.2955,-0.113,1.4085,0.5065,0.681,0.446,0.2875,0.4915,0.1645,0.3045,-0.2535,0.0885
0.7885,1.8065,1.0185,-1.2975,-0.1155,1.4125,0.5245,0.679,0.4495,0.2895,0.492,0.1645,0.3085,-0.245,0.089
0.78,1.806,1.0265,-1.293,-0.1235,1.4165,0.527,0.6825,0.451,0.2895,0.4915,0.164,0.309,-0.2315,0.0935
0.7685,1.8,1.032,-1.284,-0.132,1.4165,0.529,0.6845,0.449,0.2855,0.484,0.157,0.2995,-0.249,0.08
0.7685,1.793,1.0245,-1.2805,-0.1285,1.409,0.525,0.677,0.4455,0.28,0.478,0.151,0.299,-0.2575,0.0795
0.7645,1.795,1.031,-1.28,-0.1335,1.413,0.5245,0.6825,0.4445,0.2785,0.474,0.1485,0.2985,-0.254,0.083
0.7385,1.7785,1.0405,-1.2585,-0.151,1.4095,0.5235,0.674,0.4355,0.2685,0.465,0.143,0.2905,-0.2395,0.0735
0.739,1.7755,1.037,-1.257,-0.149,1.4065,0.5245,0.6745,0.438,0.2705,0.4665,0.145,0.286,-0.222,0.07
0.74,1.774,1.0345,-1.257,-0.1475,1.4045,0.528,0.681,0.442,0.274,0.468,0.1465,0.2785,-0.248,0.068
0.7435,1.7675,1.0245,-1.2555,-0.141,1.396,0.529,0.687,0.4445,0.274,0.469,0.1495,0.271,-0.26,0.065
0.759,1.7795,1.0215,-1.2695,-0.1315,1.401,0.54,0.7015,0.451,0.275,0.47,0.149,0.2695,-0.245,0.064
0.756,1.7845,1.029,-1.27,-0.137,1.407,0.5465,0.684,0.4435,0.269,0.465,0.143,0.263,-0.2485,0.069
0.749,1.782,1.0335,-1.2655,-0.1425,1.408,0.5315,0.681,0.4405,0.2705,0.468,0.148,0.253,-0.2495,0.0695
0.7535,1.7785,1.026,-1.266,-0.1365,1.4025,0.518,0.6835,0.4335,0.2565,0.451,0.134,0.24,-0.2525,0.069
0.7705,1.783,1.013,-1.277,-0.1215,1.398,0.523,0.676,0.433,0.2555,0.448,0.133,0.2365,-0.256,0.0725
0.7695,1.784,1.015,-1.2765,-0.123,1.3995,0.5255,0.677,0.4335,0.2605,0.452,0.14,0.2385,-0.2595,0.0685
0.757,1.7995,1.043,-1.2785,-0.143,1.4215,0.5075,0.6675,0.423,0.25,0.442,0.132,0.2395,-0.2365,0.0695
0.7705,1.8365,1.0665,-1.3035,-0.1485,1.452,0.5055,0.6615,0.4175,0.2465,0.4415,0.1325,0.2485,-0.19,0.0735
0.7725,1.8565,1.0845,-1.315,-0.156,1.4705,0.5165,0.662,0.422,0.25,0.4465,0.1365,0.257,-0.1935,0.0725
0.769,1.8575,1.089,-1.3135,-0.16,1.4735,0.5275,0.676,0.438,0.268,0.468,0.1545,0.2635,-0.194,0.07
0.761,1.8235,1.0635,-1.2925,-0.1515,1.444,0.541,0.681,0.437,0.266,0.4645,0.152,0.2685,-0.2025,0.0755
0.764,1.805,1.0415,-1.2845,-0.139,1.4235,0.5375,0.679,0.4375,0.2645,0.464,0.153,0.282,-0.238,0.089
0.79,1.8275,1.038,-1.3085,-0.124,1.433,0.531,0.682,0.443,0.2735,0.477,0.1645,0.3005,-0.2295,0.093
0.793,1.8335,1.0405,-1.3135,-0.124,1.4375,0.525,0.6675,0.429,0.264,0.468,0.1575,0.3105,-0.2265,0.101
0.781,1.8145,1.034,-1.2975,-0.127,1.4245,0.5275,0.678,0.437,0.2705,0.4755,0.167,0.3175,-0.2275,0.1
0.76,1.8035,1.044,-1.2815,-0.1425,1.424,0.5315,0.675,0.4405,0.278,0.484,0.179,0.3165,-0.2085,0.0995
0.752,1.805,1.0535,-1.2785,-0.151,1.4295,0.527,0.6575,0.428,0.2715,0.482,0.178,0.3155,-0.21,0.1015
0.758,1.797,1.039,-1.2775,-0.1405,1.418,0.5325,0.6785,0.437,0.2785,0.488,0.18,0.316,-0.2105,0.094
0.7625,1.7875,1.0255,-1.275,-0.1315,1.4065,0.5355,0.6675,0.428,0.2745,0.487,0.18,0.3085,-0.217,0.095
0.777,1.8215,1.045,-1.2995,-0.1345,1.4335,0.5095,0.6515,0.419,0.27,0.484,0.1785,0.3135,-0.2085,0.096
0.7705,1.8295,1.0595,-1.3,-0.145,1.4445,0.5085,0.6535,0.42,0.2705,0.485,0.1795,0.313,-0.211,0.1025
0.76,1.8025,1.043,-1.2815,-0.142,1.423,0.517,0.642,0.411,0.263,0.4825,0.178,0.305,-0.2185,0.115
0.7455,1.7995,1.0545,-1.2725,-0.155,1.4275,0.517,0.6375,0.4085,0.2635,0.4835,0.18,0.3025,-0.212,0.1125
0.731,1.774,1.0435,-1.2525,-0.156,1.409,0.537,0.634,0.406,0.262,0.483,0.1805,0.2975,-0.2265,0.1125
0.745,1.768,1.0235,-1.256,-0.1395,1.3955,0.54,0.646,0.416,0.269,0.49,0.1855,0.299,-0.2235,0.1145
0.7375,1.752,1.015,-1.2445,-0.139,1.384,0.545,0.6435,0.415,0.274,0.4965,0.1945,0.2925,-0.233,0.112
0.7375,1.7645,1.0275,-1.251,-0.1455,1.396,0.5485,0.633,0.408,0.271,0.4955,0.1965,0.2965,-0.227,0.1215
0.758,1.7965,1.039,-1.2775,-0.1405,1.418,0.5285,0.6285,0.406,0.269,0.493,0.1955,0.3035,-0.2255,0.1185
0.751,1.7795,1.0285,-1.265,-0.139,1.4045,0.521,0.6165,0.397,0.2625,0.487,0.1945,0.2975,-0.2265,0.113
0.7475,1.787,1.04,-1.2675,-0.1465,1.4135,0.5125,0.6005,0.389,0.2555,0.4825,0.1935,0.3005,-0.197,0.1145
0.7705,1.8135,1.0435,-1.292,-0.1365,1.4285,0.5,0.5925,0.381,0.254,0.4795,0.1925,0.311,-0.195,0.1225
0.771,1.857,1.0865,-1.314,-0.158,1.472,0.498,0.598,0.384,0.2555,0.4795,0.19,0.32,-0.185,0.1265
0.7695,1.8795,1.1105,-1.3245,-0.1705,1.495,0.4915,0.577,0.375,0.2515,0.4755,0.185,0.3195,-0.1865,0.12
0.7795,1.8695,1.09,-1.3245,-0.1555,1.48,0.496,0.5795,0.374,0.258,0.484,0.1925,0.3195,-0.204,0.117
0.771,1.8685,1.0975,-1.3195,-0.1635,1.483,0.5055,0.585,0.3765,0.262,0.491,0.198,0.323,-0.213,0.125
0.7655,1.8575,1.0925,-1.3115,-0.164,1.4755,0.49,0.56,0.364,0.2525,0.481,0.1895,0.3165,-0.2315,0.1335
0.7585,1.8365,1.0785,-1.2975,-0.16,1.4575,0.481,0.5615,0.364,0.2495,0.4755,0.1805,0.303,-0.245,0.1295
0.757,1.82,1.0635,-1.2885,-0.1535,1.442,0.4865,0.5595,0.3615,0.253,0.479,0.1835,0.303,-0.249,0.132
0.769,1.82,1.0515,-1.2945,-0.1415,1.4365,0.4825,0.554,0.3565,0.2505,0.4765,0.185,0.3065,-0.24,0.14
0.78,1.828,1.0485,-1.304,-0.1345,1.4385,0.4835,0.539,0.345,0.245,0.4725,0.18,0.305,-0.2275,0.1475
0.775,1.8215,1.0465,-1.2985,-0.136,1.434,0.474,0.5235,0.3385,0.2465,0.476,0.1815,0.2965,-0.2285,0.146
0.769,1.8235,1.0555,-1.296,-0.1435,1.4395,0.471,0.5335,0.3505,0.2545,0.486,0.1865,0.295,-0.218,0.1485
0.7675,1.818,1.051,-1.293,-0.142,1.435,0.481,0.5315,0.347,0.259,0.4945,0.193,0.3005,-0.216,0.1595
0.745,1.786,1.0415,-1.2655,-0.1485,1.414,0.48,0.536,0.3485,0.262,0.494,0.1895,0.2925,-0.236,0.152
0.74,1.772,1.0325,-1.256,-0.1465,1.4025,0.4705,0.523,0.3445,0.259,0.4885,0.1835,0.286,-0.2455,0.157
0.7365,1.775,1.039,-1.2555,-0.1515,1.4075,0.46,0.5075,0.3275,0.2395,0.4705,0.17,0.281,-0.2345,0.1655
0.7195,1.7735,1.0545,-1.2465,-0.1675,1.414,0.4665,0.4935,0.314,0.2255,0.4555,0.159,0.2715,-0.23,0.1625
0.737,1.776,1.04,-1.2565,-0.152,1.4085,0.466,0.4645,0.3005,0.217,0.4505,0.1645,0.272,-0.257,0.1705
0.743,1.782,1.04,-1.2625,-0.149,1.411,0.4635,0.48,0.3055,0.221,0.4555,0.175,0.2735,-0.25,0.1735
0.7655,1.7975,1.032,-1.2815,-0.1335,1.415,0.4685,0.4985,0.319,0.2385,0.473,0.19,0.2795,-0.2335,0.183
0.796,1.822,1.026,-1.309,-0.115,1.424,0.4665,0.494,0.322,0.246,0.483,0.195,0.2865,-0.24,0.1895
0.7835,1.805,1.022,-1.294,-0.1195,1.4135,0.456,0.4795,0.313,0.239,0.479,0.1865,0.2865,-0.2455,0.1895
0.775,1.7805,1.006,-1.2775,-0.116,1.3935,0.452,0.486,0.3155,0.2395,0.478,0.1835,0.2845,-0.2595,0.1935
0.772,1.79,1.018,-1.281,-0.1235,1.4045,0.4695,0.4955,0.323,0.249,0.482,0.1875,0.286,-0.2545,0.1995
0.7725,1.8095,1.0375,-1.291,-0.133,1.424,0.4605,0.479,0.3105,0.2405,0.474,0.1765,0.291,-0.241,0.2
0.764,1.8045,1.041,-1.284,-0.139,1.423,0.449,0.465,0.298,0.23,0.4605,0.1605,0.285,-0.256,0.203
0.7745,1.7965,1.022,-1.285,-0.124,1.4095,0.4545,0.473,0.3105,0.243,0.4715,0.171,0.2955,-0.251,0.215
0.788,1.8,1.0125,-1.294,-0.1125,1.4065,0.453,0.4665,0.304,0.2395,0.4715,0.17,0.3005,-0.221,0.2165
0.782,1.7965,1.015,-1.289,-0.1165,1.4055,0.44,0.45,0.294,0.2315,0.4625,0.1595,0.303,-0.2315,0.225
0.781,1.8055,1.025,-1.2935,-0.122,1.4155,0.4345,0.4765,0.3115,0.243,0.4735,0.1675,0.302,-0.24,0.2235
0.77,1.8005,1.031,-1.285,-0.131,1.416,0.456,0.468,0.3025,0.2375,0.4695,0.1645,0.295,-0.238,0.2195
0.773,1.7965,1.024,-1.285,-0.1255,1.4105,0.443,0.445,0.29,0.23,0.4645,0.16,0.3035,-0.257,0.2325
0.771,1.797,1.0265,-1.284,-0.128,1.412,0.4375,0.442,0.284,0.2255,0.4635,0.158,0.3015,-0.258,0.234
0.7685,1.7935,1.0255,-1.281,-0.129,1.41,0.453,0.442,0.287,0.231,0.4665,0.1595,0.302,-0.2625,0.2345
0.7795,1.7825,1.0035,-1.281,-0.1125,1.3935,0.4525,0.4495,0.294,0.2355,0.4685,0.1605,0.305,-0.28,0.2475
0.7845,1.77,0.9865,-1.2775,-0.1015,1.3785,0.4515,0.4515,0.2935,0.234,0.466,0.1605,0.3045,-0.295,0.245
0.7845,1.7745,0.991,-1.2795,-0.1035,1.383,0.453,0.4555,0.2995,0.24,0.471,0.169,0.302,-0.3025,0.2395
0.767,1.7705,1.004,-1.2685,-0.119,1.3875,0.455,0.444,0.2875,0.2295,0.46,0.1585,0.293,-0.29,0.245
0.7585,1.77,1.012,-1.2645,-0.127,1.3915,0.4505,0.4425,0.2765,0.2185,0.4495,0.144,0.2835,-0.2835,0.24
0.7635,1.7575,0.9945,-1.2605,-0.116,1.376,0.4465,0.434,0.271,0.211,0.4435,0.139,0.278,-0.288,0.234
0.7665,1.75,0.984,-1.2585,-0.109,1.367,0.4435,0.4205,0.2655,0.207,0.441,0.1405,0.282,-0.308,0.228
0.7735,1.75,0.977,-1.2615,-0.102,1.3635,0.4505,0.429,0.2715,0.216,0.45,0.1475,0.2855,-0.324,0.2225
0.77,1.733,0.9635,-1.2515,-0.097,1.3485,0.45,0.424,0.2755,0.219,0.452,0.1475,0.281,-0.331,0.22
0.763,1.738,0.9755,-1.2505,-0.1065,1.357,0.4365,0.424,0.271,0.213,0.448,0.147,0.277,-0.3325,0.2195
0.768,1.751,0.9835,-1.2595,-0.108,1.3675,0.4395,0.425,0.267,0.213,0.449,0.146,0.273,-0.32,0.2225
0.7795,1.7465,0.9675,-1.263,-0.094,1.3575,0.45,0.4185,0.2695,0.217,0.455,0.1485,0.273,-0.3155,0.23
0.7695,1.7425,0.9735,-1.256,-0.102,1.3585,0.4405,0.419,0.2695,0.216,0.454,0.146,0.2705,-0.309,0.241
0.743,1.726,0.9835,-1.2345,-0.1205,1.355,0.4365,0.4165,0.264,0.2135,0.4495,0.14,0.2675,-0.3085,0.2465
0.747,1.6955,0.949,-1.2215,-0.101,1.3225,0.437,0.4205,0.2655,0.219,0.4565,0.1475,0.274,-0.323,0.246
0.758,1.696,0.9385,-1.227,-0.0905,1.3175,0.428,0.4165,0.266,0.2205,0.457,0.1485,0.2755,-0.323,0.246
0.7625,1.728,0.9655,-1.245,-0.102,1.347,0.4255,0.4075,0.26,0.2085,0.4445,0.14,0.2765,-0.2935,0.2525
0.7755,1.7625,0.988,-1.269,-0.1065,1.3755,0.4225,0.3955,0.251,0.1995,0.435,0.136,0.282,-0.29,0.261
0.7985,1.7765,0.9785,-1.2875,-0.0905,1.3775,0.4245,0.407,0.258,0.206,0.4415,0.1425,0.2835,-0.305,0.258
0.8045,1.7725,0.9685,-1.2885,-0.0825,1.3705,0.4265,0.4165,0.2605,0.2045,0.441,0.14,0.2795,-0.294,0.2595
0.786,1.758,0.9725,-1.272,-0.0935,1.3655,0.432,0.4025,0.2535,0.2,0.4375,0.1375,0.276,-0.3095,0.268
0.7955,1.7545,0.9595,-1.275,-0.0825,1.3575,0.448,0.406,0.256,0.2055,0.4455,0.147,0.275,-0.3095,0.2665
0.791,1.758,0.967,-1.2745,-0.0885,1.363,0.4415,0.4055,0.255,0.204,0.4445,0.145,0.276,-0.29,0.268
0.7855,1.7415,0.9565,-1.2635,-0.086,1.3495,0.4415,0.4225,0.269,0.2155,0.453,0.1515,0.285,-0.3065,0.2735
0.7875,1.7255,0.938,-1.2565,-0.0755,1.332,0.451,0.43,0.2725,0.2195,0.4565,0.1535,0.2905,-0.3275,0.278
0.774,1.7235,0.95,-1.2485,-0.088,1.337,0.443,0.4135,0.265,0.209,0.447,0.1435,0.2865,-0.3285,0.2765
0.774,1.732,0.958,-1.253,-0.092,1.345,0.44,0.4145,0.262,0.206,0.442,0.1385,0.2825,-0.3215,0.272
0.783,1.723,0.94,-1.253,-0.079,1.3315,0.4585,0.42,0.2665,0.2095,0.4435,0.1395,0.2875,-0.329,0.268
0.7745,1.701,0.9265,-1.2375,-0.076,1.314,0.4675,0.4365,0.2845,0.2225,0.458,0.1525,0.288,-0.3485,0.2605
0.755,1.705,0.95,-1.23,-0.098,1.328,0.452,0.4245,0.2755,0.218,0.456,0.1495,0.282,-0.3355,0.262
0.763,1.72,0.958,-1.2415,-0.098,1.339,0.447,0.407,0.2605,0.2055,0.4425,0.14,0.285,-0.327,0.266
0.7595,1.71,0.951,-1.235,-0.096,1.331,0.4415,0.413,0.261,0.2065,0.441,0.1415,0.2915,-0.3485,0.271
0.7525,1.7015,0.9495,-1.227,-0.0985,1.3255,0.4275,0.408,0.255,0.1995,0.4375,0.1415,0.286,-0.342,0.275
0.7465,1.707,0.9605,-1.2265,-0.107,1.334,0.457,0.418,0.2635,0.2085,0.4495,0.156,0.288,-0.3445,0.2655
0.744,1.713,0.97,-1.229,-0.113,1.342,0.4725,0.413,0.265,0.215,0.4565,0.163,0.2935,-0.354,0.2625
0.754,1.7185,0.965,-1.2365,-0.1055,1.342,0.4545,0.4075,0.2585,0.203,0.4415,0.1515,0.2825,-0.351,0.26
0.7485,1.714,0.9665,-1.231,-0.1095,1.3405,0.449,0.412,0.258,0.1995,0.438,0.147,0.2825,-0.337,0.2615
0.7485,1.694,0.946,-1.221,-0.099,1.32,0.45,0.4215,0.269,0.2105,0.4475,0.1545,0.288,-0.3475,0.269
0.7565,1.672,0.9165,-1.2145,-0.08,1.2945,0.4655,0.439,0.284,0.2205,0.4585,0.164,0.2875,-0.371,0.271
0.769,1.697,0.929,-1.233,-0.0805,1.3135,0.4515,0.415,0.2625,0.1985,0.4375,0.1455,0.2825,-0.3575,0.278
0.7645,1.724,0.96,-1.2445,-0.098,1.342,0.433,0.392,0.2425,0.1795,0.4165,0.1275,0.274,-0.3595,0.276
