i,ii,iii,avr,avl,avf,v1,v2,v3,v4,v5,v6,vx,vy,vz
0.127,0.6775,0.5505,-0.402,-0.212,0.6145,0.9735,0.7585,0.751,0.8715,0.8575,0.8715,-0.0615,-0.164,-0.1045
0.131,0.684,0.553,-0.4075,-0.211,0.6185,0.9845,0.768,0.753,0.8745,0.859,0.873,-0.0625,-0.164,-0.0995
0.139,0.6885,0.5495,-0.4135,-0.2055,0.6195,0.9905,0.771,0.755,0.874,0.861,0.873,-0.0635,-0.166,-0.086
0.138,0.6925,0.554,-0.4145,-0.208,0.6235,0.985,0.7685,0.7545,0.877,0.865,0.8745,-0.0615,-0.168,-0.09
0.144,0.7005,0.5565,-0.422,-0.206,0.629,0.9815,0.767,0.756,0.878,0.8665,0.8755,-0.063,-0.1625,-0.089
0.1445,0.7005,0.5555,-0.4225,-0.2055,0.6285,0.975,0.7655,0.754,0.8775,0.866,0.8765,-0.0615,-0.161,-0.0855
0.1375,0.6965,0.5585,-0.4165,-0.2105,0.6275,0.97,0.7625,0.7485,0.8705,0.8575,0.867,-0.0645,-0.161,-0.0885
0.142,0.7025,0.56,-0.422,-0.209,0.6315,0.972,0.762,0.749,0.8715,0.858,0.8695,-0.0635,-0.158,-0.0945
0.145,0.708,0.563,-0.4265,-0.209,0.636,0.974,0.7625,0.7495,0.8725,0.861,0.874,-0.0615,-0.152,-0.098
0.1455,0.7105,0.565,-0.4275,-0.2095,0.638,0.972,0.7575,0.7465,0.867,0.856,0.8685,-0.064,-0.155,-0.0965
0.1545,0.7175,0.563,-0.436,-0.2045,0.6405,0.971,0.7555,0.745,0.8685,0.8555,0.87,-0.065,-0.159,-0.095
0.158,0.7175,0.5595,-0.4375,-0.2005,0.639,0.9735,0.756,0.7465,0.867,0.855,0.8715,-0.065,-0.1595,-0.0935
0.154,0.711,0.557,-0.4325,-0.2015,0.6345,0.9755,0.759,0.746,0.8665,0.855,0.8705,-0.0675,-0.1565,-0.094
0.155,0.7075,0.552,-0.431,-0.1985,0.63,0.9755,0.761,0.7465,0.868,0.855,0.8705,-0.07,-0.1505,-0.0915
0.157,0.693,0.536,-0.4245,-0.1895,0.6145,0.979,0.764,0.753,0.8735,0.86,0.877,-0.0675,-0.163,-0.088
0.1545,0.692,0.5375,-0.423,-0.1915,0.615,0.9765,0.761,0.7515,0.874,0.861,0.877,-0.0685,-0.165,-0.0895
0.1585,0.7175,0.559,-0.4375,-0.2005,0.6385,0.974,0.757,0.7475,0.8675,0.8545,0.8715,-0.0685,-0.147,-0.091
0.161,0.7295,0.5685,-0.445,-0.2035,0.649,0.9775,0.7585,0.7465,0.867,0.853,0.8715,-0.068,-0.138,-0.092
0.15,0.7175,0.5675,-0.4335,-0.2085,0.643,0.964,0.7495,0.7365,0.858,0.8455,0.864,-0.0655,-0.1425,-0.0845
0.1395,0.7045,0.565,-0.422,-0.2125,0.635,0.957,0.7465,0.73,0.8505,0.8405,0.8595,-0.0625,-0.151,-0.0755
0.1305,0.692,0.5615,-0.4105,-0.2155,0.627,0.9545,0.745,0.726,0.847,0.8365,0.857,-0.063,-0.1545,-0.0655
0.131,0.6935,0.5625,-0.412,-0.2155,0.6285,0.9525,0.7425,0.7275,0.847,0.8355,0.856,-0.065,-0.1515,-0.0565
0.138,0.692,0.5535,-0.4145,-0.208,0.623,0.959,0.747,0.733,0.851,0.8385,0.861,-0.066,-0.1595,-0.0525
0.1335,0.676,0.543,-0.4045,-0.2045,0.6095,0.96,0.7495,0.731,0.85,0.8375,0.8605,-0.0635,-0.164,-0.06
0.1505,0.696,0.546,-0.423,-0.198,0.621,0.97,0.755,0.737,0.855,0.8445,0.8665,-0.0645,-0.157,-0.0795
0.1585,0.7045,0.546,-0.4315,-0.194,0.6255,0.9715,0.755,0.7345,0.852,0.842,0.8655,-0.063,-0.1605,-0.0815
0.143,0.69,0.5465,-0.4165,-0.2015,0.6185,0.9605,0.7455,0.725,0.8415,0.8335,0.856,-0.0625,-0.1675,-0.0785
0.1485,0.6975,0.5485,-0.423,-0.2,0.6235,0.9625,0.7425,0.7245,0.8395,0.8315,0.8555,-0.0655,-0.167,-0.0805
0.148,0.6935,0.545,-0.4205,-0.1985,0.6195,0.959,0.7415,0.721,0.8365,0.826,0.8525,-0.0655,-0.1615,-0.076
0.1475,0.6965,0.5485,-0.4215,-0.2005,0.6225,0.96,0.743,0.721,0.835,0.824,0.851,-0.0675,-0.1535,-0.078
0.1535,0.712,0.558,-0.4325,-0.2025,0.635,0.968,0.7435,0.7245,0.837,0.8275,0.854,-0.0695,-0.1465,-0.085
0.149,0.706,0.5565,-0.427,-0.2035,0.6315,0.9605,0.739,0.72,0.8345,0.8245,0.8525,-0.067,-0.1455,-0.0815
0.145,0.7025,0.557,-0.4235,-0.206,0.63,0.959,0.737,0.7185,0.833,0.824,0.8505,-0.0655,-0.144,-0.08
0.1445,0.697,0.5525,-0.4205,-0.204,0.625,0.955,0.735,0.7155,0.829,0.82,0.85,-0.0635,-0.152,-0.0755
0.1415,0.6885,0.547,-0.415,-0.203,0.618,0.947,0.732,0.711,0.8245,0.817,0.848,-0.062,-0.162,-0.0695
0.14,0.691,0.551,-0.4155,-0.2055,0.6215,0.95,0.7345,0.7135,0.8275,0.8245,0.847,-0.063,-0.158,-0.073
0.1435,0.688,0.5445,-0.4155,-0.2005,0.6165,0.9535,0.739,0.714,0.8285,0.817,0.848,-0.0595,-0.1615,-0.0675
0.144,0.688,0.544,-0.416,-0.2,0.616,0.953,0.735,0.7145,0.831,0.82,0.8525,-0.058,-0.161,-0.07
0.1435,0.6865,0.543,-0.415,-0.2,0.615,0.9485,0.7315,0.713,0.8275,0.8185,0.8505,-0.059,-0.162,-0.069
0.144,0.684,0.54,-0.4135,-0.198,0.612,0.949,0.732,0.712,0.825,0.8135,0.848,-0.0595,-0.169,-0.0655
0.1435,0.6845,0.5405,-0.4135,-0.1985,0.6125,0.9495,0.73,0.7095,0.823,0.8145,0.8485,-0.0595,-0.1675,-0.066
0.1425,0.685,0.542,-0.4135,-0.2,0.6135,0.9475,0.7315,0.7095,0.822,0.812,0.848,-0.057,-0.165,-0.0635
0.147,0.688,0.5405,-0.4175,-0.197,0.6145,0.9455,0.733,0.7095,0.819,0.8125,0.851,-0.0565,-0.1625,-0.0625
0.142,0.678,0.5365,-0.41,-0.1975,0.6075,0.9465,0.733,0.705,0.8125,0.8025,0.838,-0.066,-0.166,-0.062
0.142,0.6835,0.5415,-0.4125,-0.2,0.613,0.947,0.7315,0.7135,0.8275,0.82,0.8455,-0.062,-0.1685,-0.065
0.1455,0.6895,0.5435,-0.4175,-0.199,0.617,0.946,0.7305,0.7165,0.833,0.8275,0.855,-0.0565,-0.1655,-0.064
0.136,0.6845,0.5485,-0.41,-0.2065,0.617,0.945,0.729,0.713,0.8255,0.817,0.8445,-0.064,-0.162,-0.066
0.1395,0.692,0.552,-0.4155,-0.206,0.622,0.945,0.7295,0.715,0.827,0.823,0.8475,-0.063,-0.1605,-0.0685
0.1425,0.6955,0.5525,-0.4185,-0.205,0.624,0.9505,0.734,0.718,0.8285,0.8245,0.8495,-0.065,-0.1575,-0.07
0.1345,0.695,0.5605,-0.4145,-0.213,0.628,0.953,0.735,0.72,0.8295,0.826,0.8495,-0.066,-0.1505,-0.0735
0.1275,0.6915,0.564,-0.409,-0.218,0.6275,0.952,0.736,0.7185,0.829,0.8245,0.8495,-0.0665,-0.1475,-0.0755
0.1315,0.6915,0.56,-0.411,-0.2145,0.626,0.952,0.7375,0.7185,0.831,0.8255,0.85,-0.0675,-0.1475,-0.0765
0.135,0.6925,0.5575,-0.4135,-0.211,0.625,0.9505,0.733,0.7155,0.828,0.824,0.8475,-0.067,-0.15,-0.076
0.13,0.6875,0.557,-0.4085,-0.2135,0.6225,0.9465,0.727,0.71,0.8235,0.819,0.8445,-0.0675,-0.156,-0.073
0.132,0.689,0.5575,-0.41,-0.213,0.6235,0.946,0.7275,0.71,0.822,0.8195,0.844,-0.068,-0.1595,-0.0705
0.125,0.6815,0.5565,-0.403,-0.2155,0.619,0.9425,0.7245,0.7095,0.821,0.8195,0.842,-0.0655,-0.1635,-0.069
0.1235,0.6775,0.554,-0.4005,-0.215,0.616,0.939,0.724,0.712,0.825,0.8215,0.8445,-0.0645,-0.1645,-0.07
0.1435,0.7055,0.562,-0.4245,-0.2095,0.634,0.9525,0.7375,0.7245,0.837,0.8325,0.855,-0.067,-0.155,-0.0805
0.1655,0.7345,0.5685,-0.4495,-0.2015,0.652,0.9735,0.7555,0.7375,0.851,0.8455,0.8675,-0.0685,-0.142,-0.088
0.167,0.733,0.566,-0.45,-0.1995,0.65,0.9825,0.762,0.742,0.855,0.8485,0.8665,-0.0725,-0.1405,-0.089
0.151,0.713,0.562,-0.432,-0.2055,0.638,0.9735,0.752,0.734,0.848,0.843,0.8625,-0.071,-0.1465,-0.0855
0.1425,0.703,0.561,-0.4225,-0.2095,0.6325,0.96,0.7395,0.725,0.8405,0.835,0.8595,-0.067,-0.1525,-0.0775
0.1365,0.695,0.5585,-0.415,-0.211,0.627,0.948,0.73,0.717,0.8325,0.8255,0.851,-0.066,-0.161,-0.072
0.134,0.6905,0.5565,-0.412,-0.2115,0.6235,0.9455,0.731,0.717,0.8315,0.824,0.8505,-0.0655,-0.1535,-0.072
0.1365,0.6915,0.5555,-0.4135,-0.2095,0.624,0.948,0.7355,0.7225,0.8355,0.826,0.854,-0.0645,-0.148,-0.0725
0.138,0.6875,0.5495,-0.4125,-0.2055,0.6185,0.9465,0.7375,0.7205,0.833,0.823,0.855,-0.0635,-0.157,-0.07
0.137,0.689,0.552,-0.4125,-0.2075,0.6205,0.9485,0.737,0.7205,0.8325,0.823,0.8525,-0.0635,-0.1525,-0.071
0.138,0.6945,0.5565,-0.416,-0.209,0.626,0.9475,0.7355,0.721,0.834,0.8265,0.8525,-0.063,-0.146,-0.0705
0.1395,0.6985,0.559,-0.4185,-0.21,0.6285,0.9515,0.744,0.726,0.84,0.831,0.8575,-0.0615,-0.145,-0.0705
0.143,0.7,0.557,-0.421,-0.207,0.6285,0.949,0.74,0.722,0.8395,0.8305,0.8575,-0.06,-0.1475,-0.069
0.1495,0.7005,0.5505,-0.4245,-0.2005,0.6255,0.941,0.7275,0.7135,0.834,0.8275,0.855,-0.0595,-0.1525,-0.067
0.151,0.698,0.5465,-0.4245,-0.1975,0.6225,0.9425,0.728,0.714,0.836,0.8285,0.8565,-0.0575,-0.154,-0.068
0.1515,0.6985,0.547,-0.4245,-0.198,0.623,0.9425,0.731,0.7145,0.8375,0.833,0.858,-0.0565,-0.1595,-0.0705
0.1555,0.7035,0.548,-0.4295,-0.1965,0.626,0.945,0.733,0.7175,0.8405,0.837,0.8605,-0.054,-0.1615,-0.0695
0.1555,0.7055,0.55,-0.4305,-0.197,0.628,0.9455,0.735,0.718,0.841,0.837,0.8625,-0.0505,-0.155,-0.0665
0.155,0.7105,0.5555,-0.4325,-0.2,0.6335,0.945,0.7365,0.7195,0.842,0.838,0.863,-0.0505,-0.1495,-0.0685
0.16,0.714,0.5545,-0.437,-0.197,0.6345,0.947,0.7395,0.723,0.8435,0.8375,0.865,-0.0505,-0.1475,-0.0665
0.161,0.7165,0.5555,-0.4385,-0.197,0.636,0.952,0.7425,0.7285,0.8475,0.8405,0.868,-0.052,-0.1445,-0.0675
0.1655,0.724,0.5585,-0.4445,-0.1965,0.6415,0.9545,0.7425,0.7305,0.849,0.8415,0.8695,-0.053,-0.148,-0.069
0.1585,0.7185,0.56,-0.438,-0.201,0.6395,0.947,0.7385,0.7265,0.844,0.8355,0.865,-0.0535,-0.152,-0.0675
0.1565,0.7195,0.5635,-0.438,-0.2035,0.642,0.944,0.7375,0.729,0.8455,0.837,0.8655,-0.0545,-0.1455,-0.069
0.1675,0.732,0.5645,-0.4495,-0.1985,0.6485,0.9495,0.743,0.7365,0.8535,0.8465,0.8735,-0.056,-0.1385,-0.0705
0.17,0.7395,0.569,-0.4545,-0.1995,0.6545,0.9475,0.7425,0.7375,0.8545,0.8505,0.8745,-0.0545,-0.1335,-0.0695
0.173,0.7465,0.573,-0.4595,-0.2,0.66,0.9535,0.747,0.7405,0.859,0.854,0.876,-0.056,-0.1335,-0.0725
0.177,0.7585,0.5815,-0.4675,-0.2025,0.6705,0.9675,0.755,0.745,0.861,0.854,0.876,-0.0585,-0.127,-0.077
0.159,0.74,0.581,-0.4495,-0.211,0.6605,0.94,0.7365,0.7245,0.84,0.837,0.8605,-0.0505,-0.136,-0.065
0.1395,0.701,0.5615,-0.42,-0.211,0.6315,0.922,0.7235,0.713,0.8305,0.8295,0.8535,-0.0475,-0.154,-0.059
0.154,0.7145,0.561,-0.434,-0.2035,0.638,0.9355,0.7305,0.7265,0.844,0.8405,0.8635,-0.051,-0.152,-0.066
0.1645,0.73,0.5655,-0.447,-0.2005,0.648,0.9345,0.732,0.73,0.8495,0.8465,0.8685,-0.051,-0.1505,-0.068
0.1655,0.7255,0.56,-0.4455,-0.197,0.643,0.9445,0.7405,0.735,0.8555,0.851,0.8715,-0.053,-0.1485,-0.07
0.162,0.7085,0.5465,-0.435,-0.192,0.628,0.952,0.7465,0.7385,0.8605,0.856,0.8755,-0.052,-0.1595,-0.068
0.1555,0.729,0.5735,-0.442,-0.209,0.6515,0.9405,0.7345,0.726,0.847,0.8435,0.864,-0.052,-0.142,-0.0655
0.1595,0.752,0.5925,-0.4555,-0.2165,0.6725,0.9445,0.7375,0.727,0.848,0.843,0.8625,-0.055,-0.1265,-0.071
0.156,0.693,0.537,-0.424,-0.1905,0.615,0.9665,0.7605,0.75,0.873,0.868,0.886,-0.0555,-0.1645,-0.0715
0.153,0.6865,0.5335,-0.4195,-0.19,0.61,0.9675,0.7615,0.7535,0.8745,0.8695,0.8855,-0.058,-0.164,-0.0665
0.148,0.7065,0.5585,-0.427,-0.2055,0.633,0.9575,0.753,0.7455,0.8655,0.858,0.874,-0.06,-0.1475,-0.0615
0.1465,0.7025,0.5555,-0.424,-0.2045,0.629,0.966,0.7605,0.749,0.8695,0.8615,0.8815,-0.058,-0.144,-0.0585
0.136,0.695,0.559,-0.4155,-0.2115,0.627,0.948,0.7495,0.7415,0.8625,0.855,0.877,-0.0555,-0.1445,-0.052
0.1555,0.716,0.561,-0.4355,-0.203,0.6385,0.9415,0.7455,0.745,0.8655,0.8575,0.8785,-0.057,-0.1445,-0.045
0.1865,0.7525,0.566,-0.469,-0.19,0.6595,0.953,0.7555,0.758,0.879,0.872,0.89,-0.0595,-0.138,-0.044
0.1525,0.7075,0.555,-0.43,-0.2015,0.6315,0.934,0.738,0.7405,0.863,0.855,0.8765,-0.0535,-0.156,-0.052
0.155,0.701,0.546,-0.428,-0.1955,0.624,0.9425,0.7435,0.7385,0.86,0.8505,0.875,-0.048,-0.164,-0.074
0.1695,0.716,0.5465,-0.4425,-0.1885,0.6315,0.9535,0.754,0.744,0.8655,0.857,0.8805,-0.047,-0.1595,-0.0825
0.157,0.7,0.543,-0.428,-0.193,0.6215,0.9475,0.7475,0.738,0.861,0.8535,0.8765,-0.0475,-0.1615,-0.0785
0.162,0.704,0.5425,-0.4325,-0.1905,0.6235,0.953,0.7535,0.744,0.868,0.8595,0.88,-0.049,-0.163,-0.0725
0.1645,0.701,0.537,-0.4325,-0.186,0.619,0.955,0.756,0.745,0.868,0.86,0.879,-0.051,-0.1655,-0.0655
0.164,0.702,0.5385,-0.433,-0.187,0.6205,0.9565,0.758,0.748,0.8695,0.8625,0.8815,-0.0515,-0.17,-0.0705
0.1715,0.7005,0.529,-0.436,-0.1785,0.615,0.9495,0.7555,0.7475,0.8675,0.86,0.8795,-0.0495,-0.1765,-0.076
0.169,0.7025,0.5335,-0.4355,-0.1825,0.6185,0.95,0.7595,0.751,0.8715,0.8615,0.8835,-0.048,-0.1755,-0.0775
0.212,0.708,0.4965,-0.4595,-0.1425,0.6025,0.94,0.7485,0.7385,0.8595,0.8505,0.87,-0.05,-0.1705,-0.0815
0.219,0.7045,0.4855,-0.4615,-0.133,0.595,0.941,0.7445,0.735,0.8545,0.847,0.864,-0.051,-0.165,-0.0825
0.1385,0.702,0.564,-0.42,-0.2125,0.633,0.977,0.7735,0.7645,0.885,0.8765,0.892,-0.05,-0.1685,-0.081
0.1425,0.698,0.5555,-0.42,-0.2065,0.627,0.984,0.771,0.761,0.881,0.8705,0.8845,-0.0545,-0.17,-0.0845
0.1585,0.695,0.536,-0.4265,-0.189,0.6155,0.988,0.7685,0.754,0.874,0.863,0.8775,-0.0535,-0.1635,-0.086
0.161,0.6985,0.5375,-0.4295,-0.1885,0.6185,0.9975,0.777,0.7575,0.8775,0.868,0.8825,-0.052,-0.169,-0.0835
0.1695,0.7035,0.534,-0.4365,-0.1825,0.619,0.9935,0.7735,0.758,0.878,0.871,0.885,-0.05,-0.1685,-0.081
0.1645,0.702,0.5375,-0.433,-0.1865,0.62,0.9845,0.764,0.7555,0.878,0.8725,0.8885,-0.0445,-0.1765,-0.073
0.1655,0.6995,0.534,-0.432,-0.1845,0.617,0.9765,0.756,0.749,0.874,0.8705,0.89,-0.04,-0.188,-0.067
0.1575,0.7,0.5425,-0.4285,-0.1925,0.6215,0.9785,0.762,0.75,0.876,0.874,0.899,-0.032,-0.174,-0.0655
0.155,0.697,0.542,-0.4255,-0.1935,0.6195,0.9765,0.763,0.7475,0.873,0.8735,0.9025,-0.027,-0.1595,-0.0625
0.1625,0.6975,0.535,-0.43,-0.1865,0.6165,0.9715,0.76,0.7405,0.869,0.8725,0.905,-0.0215,-0.157,-0.058
0.168,0.6955,0.527,-0.4315,-0.1795,0.611,0.9655,0.754,0.73,0.8605,0.867,0.8975,-0.02,-0.1665,-0.05
0.165,0.691,0.526,-0.428,-0.1805,0.6085,0.9615,0.7485,0.7235,0.854,0.865,0.892,-0.0175,-0.172,-0.045
0.166,0.689,0.5225,-0.427,-0.1785,0.606,0.9635,0.746,0.7245,0.859,0.8715,0.895,-0.015,-0.1785,-0.0475
0.158,0.6765,0.5185,-0.417,-0.1805,0.598,0.9645,0.745,0.7245,0.8615,0.8715,0.8905,-0.019,-0.1845,-0.052
0.1595,0.68,0.521,-0.4195,-0.181,0.6005,0.969,0.7495,0.731,0.872,0.8805,0.892,-0.022,-0.1745,-0.0605
0.1645,0.6945,0.53,-0.429,-0.183,0.6125,0.9765,0.7545,0.7475,0.8945,0.903,0.9015,-0.0225,-0.17,-0.075
0.164,0.6985,0.5345,-0.431,-0.1855,0.617,0.9795,0.76,0.764,0.916,0.9265,0.911,-0.022,-0.173,-0.085
0.17,0.71,0.54,-0.4395,-0.185,0.625,0.979,0.7595,0.772,0.933,0.949,0.9205,-0.0155,-0.1705,-0.0905
0.175,0.7265,0.552,-0.4505,-0.1885,0.6395,0.9725,0.752,0.765,0.935,0.9615,0.929,-0.005,-0.162,-0.091
0.171,0.7315,0.5605,-0.451,-0.1945,0.646,0.964,0.7435,0.758,0.9375,0.9705,0.937,0.0065,-0.1515,-0.0885
0.165,0.732,0.567,-0.448,-0.201,0.6495,0.959,0.734,0.7485,0.9345,0.9755,0.94,0.0145,-0.1465,-0.0875
0.1625,0.729,0.5665,-0.4455,-0.2025,0.648,0.9545,0.7275,0.7325,0.9235,0.976,0.9405,0.022,-0.1475,-0.0825
0.159,0.7235,0.565,-0.441,-0.203,0.6445,0.9485,0.7185,0.7145,0.909,0.971,0.9405,0.0335,-0.15,-0.0735
0.1535,0.7185,0.565,-0.436,-0.2055,0.642,0.937,0.703,0.681,0.878,0.951,0.933,0.043,-0.1485,-0.061
0.147,0.71,0.5625,-0.4285,-0.208,0.6365,0.928,0.6915,0.6605,0.857,0.9405,0.9335,0.055,-0.147,-0.051
0.1565,0.711,0.5545,-0.4335,-0.199,0.633,0.9235,0.6865,0.649,0.8465,0.9415,0.946,0.074,-0.151,-0.0385
0.164,0.704,0.54,-0.434,-0.188,0.622,0.9185,0.684,0.6295,0.827,0.9365,0.9525,0.0925,-0.162,-0.024
0.168,0.6915,0.5235,-0.4295,-0.1775,0.6075,0.905,0.6695,0.5865,0.7835,0.912,0.9535,0.122,-0.18,0.005
0.1715,0.6875,0.5165,-0.4295,-0.1725,0.6025,0.8775,0.6375,0.508,0.705,0.8645,0.948,0.1625,-0.189,0.047
0.1685,0.6795,0.511,-0.424,-0.171,0.5955,0.849,0.601,0.4205,0.6155,0.8095,0.94,0.204,-0.199,0.0905
0.172,0.6725,0.5005,-0.422,-0.164,0.587,0.823,0.569,0.345,0.536,0.7655,0.9485,0.248,-0.207,0.13
0.186,0.6765,0.491,-0.431,-0.1525,0.584,0.8095,0.549,0.283,0.4645,0.7225,0.9605,0.2815,-0.2095,0.1605
0.213,0.7,0.487,-0.456,-0.137,0.5935,0.7915,0.519,0.207,0.385,0.68,0.977,0.3255,-0.1995,0.199
0.217,0.7025,0.485,-0.4595,-0.1335,0.594,0.741,0.457,0.086,0.2705,0.615,0.9845,0.391,-0.1945,0.2575
0.2155,0.6915,0.476,-0.4535,-0.13,0.584,0.6825,0.381,-0.067,0.118,0.5115,0.9715,0.4565,-0.2055,0.3335
0.2155,0.7005,0.485,-0.458,-0.135,0.593,0.6125,0.292,-0.243,-0.064,0.387,0.954,0.5265,-0.1935,0.416
0.2235,0.7115,0.488,-0.467,-0.1325,0.6,0.537,0.1915,-0.4425,-0.273,0.237,0.9335,0.6025,-0.1835,0.512
0.2325,0.7235,0.491,-0.4775,-0.129,0.6075,0.472,0.1,-0.625,-0.4615,0.0995,0.9035,0.662,-0.175,0.597
0.2395,0.7395,0.5,-0.489,-0.1305,0.62,0.389,-0.004,-0.804,-0.637,-0.024,0.888,0.736,-0.1555,0.683
0.2615,0.753,0.4915,-0.507,-0.115,0.6225,0.2995,-0.113,-0.9785,-0.804,-0.141,0.8875,0.8305,-0.1575,0.777
0.2695,0.7495,0.48,-0.5095,-0.105,0.615,0.232,-0.1985,-1.125,-0.9485,-0.2445,0.867,0.898,-0.1795,0.852
0.2845,0.7415,0.457,-0.5125,-0.0865,0.5995,0.178,-0.2685,-1.267,-1.097,-0.3555,0.8515,0.961,-0.1895,0.9335
0.2915,0.7265,0.435,-0.509,-0.0715,0.581,0.117,-0.345,-1.415,-1.2595,-0.487,0.83,1.015,-0.185,1.0155
0.293,0.7135,0.421,-0.503,-0.064,0.5675,0.0515,-0.429,-1.5625,-1.422,-0.623,0.8025,1.0655,-0.187,1.097
0.306,0.731,0.425,-0.518,-0.0595,0.5785,-0.007,-0.5075,-1.698,-1.5615,-0.7305,0.7925,1.123,-0.175,1.1675
0.324,0.758,0.4345,-0.5405,-0.055,0.5965,-0.058,-0.5805,-1.815,-1.6805,-0.8215,0.788,1.172,-0.1585,1.227
0.348,0.7945,0.4465,-0.571,-0.0495,0.621,-0.1175,-0.66,-1.9155,-1.7735,-0.8845,0.8065,1.236,-0.136,1.2825
0.3695,0.843,0.4735,-0.606,-0.052,0.6585,-0.1935,-0.75,-1.994,-1.8335,-0.9115,0.846,1.3085,-0.0975,1.3275
0.4035,0.8955,0.4925,-0.649,-0.0445,0.694,-0.261,-0.824,-2.055,-1.878,-0.9335,0.8765,1.3695,-0.0595,1.373
0.431,0.944,0.513,-0.687,-0.041,0.7285,-0.3075,-0.877,-2.094,-1.904,-0.9465,0.896,1.409,-0.0215,1.403
0.4585,0.9765,0.518,-0.7175,-0.03,0.7475,-0.3515,-0.9245,-2.127,-1.923,-0.9475,0.9395,1.4655,-0.004,1.4345
0.5025,0.9905,0.488,-0.746,0.0075,0.7395,-0.3905,-0.954,-2.1525,-1.94,-0.9465,0.9995,1.537,-0.008,1.4785
0.521,0.963,0.4425,-0.7415,0.039,0.703,-0.429,-0.9785,-2.1735,-1.969,-0.973,1.031,1.5845,-0.0245,1.521
0.546,0.9745,0.429,-0.76,0.0585,0.702,-0.4715,-1.0285,-2.208,-1.991,-0.9835,1.089,1.653,-0.004,1.5645
0.6185,1.0535,0.435,-0.836,0.0915,0.7445,-0.497,-1.06,-2.2055,-1.9645,-0.934,1.189,1.7275,0.043,1.5825
0.67,1.086,0.416,-0.878,0.127,0.7515,-0.526,-1.0815,-2.202,-1.9575,-0.9185,1.2475,1.7775,0.05,1.61
0.701,1.091,0.3905,-0.896,0.155,0.741,-0.5595,-1.1095,-2.2135,-1.967,-0.9255,1.296,1.8285,0.0605,1.6495
0.745,1.1125,0.3675,-0.9285,0.189,0.74,-0.5875,-1.1295,-2.1995,-1.9475,-0.909,1.3585,1.88,0.076,1.6735
0.795,1.155,0.36,-0.9745,0.2175,0.758,-0.618,-1.1525,-2.1735,-1.9125,-0.885,1.405,1.9145,0.1045,1.689
0.832,1.211,0.379,-1.021,0.2265,0.7955,-0.6365,-1.1615,-2.137,-1.871,-0.8675,1.42,1.9115,0.153,1.6875
0.8505,1.2455,0.3945,-1.0475,0.228,0.82,-0.6495,-1.1675,-2.119,-1.86,-0.893,1.394,1.8835,0.183,1.693
0.8785,1.2675,0.389,-1.0725,0.245,0.8285,-0.657,-1.1675,-2.102,-1.8585,-0.9345,1.357,1.847,0.2015,1.7
0.893,1.2725,0.3795,-1.0825,0.2565,0.8265,-0.651,-1.153,-2.07,-1.846,-0.975,1.3035,1.7905,0.2115,1.7
0.9295,1.2585,0.329,-1.094,0.3,0.794,-0.6335,-1.1295,-2.0225,-1.821,-1.016,1.2205,1.7035,0.2035,1.6805
0.9355,1.2375,0.302,-1.0865,0.317,0.77,-0.6055,-1.089,-1.9565,-1.778,-1.042,1.1435,1.608,0.19,1.651
0.8925,1.236,0.343,-1.064,0.275,0.7895,-0.5635,-1.032,-1.872,-1.715,-1.045,1.0965,1.524,0.1805,1.628
0.9005,1.2115,0.311,-1.0555,0.295,0.7615,-0.531,-0.9775,-1.792,-1.664,-1.0635,1.022,1.4285,0.1595,1.604
0.9125,1.144,0.2315,-1.0275,0.3405,0.688,-0.47,-0.9025,-1.7105,-1.6275,-1.12,0.8975,1.289,0.12,1.5715
0.902,1.0195,0.118,-0.9605,0.392,0.569,-0.395,-0.8015,-1.595,-1.558,-1.138,0.806,1.1645,0.018,1.5415
0.8725,0.8675,-0.005,-0.87,0.439,0.4315,-0.3335,-0.706,-1.4685,-1.4605,-1.101,0.7365,1.0645,-0.1045,1.507
0.8615,0.751,-0.1105,-0.806,0.486,0.3205,-0.219,-0.576,-1.31,-1.3275,-1.035,0.6775,0.9425,-0.194,1.4445
0.8585,0.6125,-0.246,-0.7355,0.5525,0.1835,-0.1175,-0.449,-1.169,-1.217,-0.985,0.6175,0.831,-0.3005,1.398
0.8265,0.4755,-0.351,-0.651,0.589,0.0625,-0.0365,-0.35,-1.066,-1.1365,-0.9545,0.539,0.7265,-0.403,1.359
0.8125,0.3325,-0.48,-0.572,0.646,-0.0735,0.054,-0.2465,-0.9515,-1.0405,-0.8965,0.5125,0.653,-0.518,1.325
0.8135,0.1985,-0.6145,-0.5055,0.714,-0.2075,0.132,-0.1505,-0.8355,-0.943,-0.8295,0.511,0.6005,-0.633,1.2975
0.81,0.1025,-0.707,-0.456,0.7585,-0.302,0.1945,-0.0735,-0.741,-0.861,-0.773,0.5005,0.551,-0.7145,1.268
0.8005,0.004,-0.7965,-0.402,0.7985,-0.396,0.2515,-0.0045,-0.659,-0.791,-0.727,0.4875,0.505,-0.7965,1.2445
0.7885,-0.0735,-0.8625,-0.357,0.8255,-0.4675,0.3075,0.0615,-0.5785,-0.72,-0.681,0.471,0.4525,-0.859,1.2125
0.7855,-0.1265,-0.912,-0.329,0.849,-0.519,0.348,0.1125,-0.506,-0.6485,-0.626,0.4735,0.4205,-0.9035,1.188
0.7815,-0.169,-0.9505,-0.306,0.866,-0.5595,0.388,0.1555,-0.441,-0.584,-0.5745,0.482,0.393,-0.934,1.162
0.767,-0.194,-0.9615,-0.2865,0.864,-0.5775,0.422,0.1935,-0.3795,-0.522,-0.5195,0.4935,0.365,-0.944,1.1265
0.7475,-0.2075,-0.955,-0.2695,0.851,-0.581,0.456,0.2285,-0.3225,-0.459,-0.4695,0.5015,0.336,-0.9545,1.0875
0.73,-0.2195,-0.9495,-0.255,0.8395,-0.584,0.4835,0.256,-0.284,-0.419,-0.435,0.496,0.3075,-0.965,1.0595
0.7105,-0.22,-0.93,-0.245,0.8205,-0.5745,0.5155,0.2925,-0.2325,-0.3645,-0.3895,0.502,0.2795,-0.9635,1.022
0.6825,-0.2335,-0.916,-0.224,0.799,-0.5745,0.542,0.324,-0.18,-0.3085,-0.346,0.503,0.248,-0.9685,0.985
0.6655,-0.2425,-0.908,-0.2115,0.787,-0.575,0.5705,0.357,-0.13,-0.2555,-0.298,0.5065,0.2195,-0.9735,0.955
0.6505,-0.2365,-0.887,-0.2065,0.7685,-0.5615,0.6185,0.4075,-0.061,-0.1795,-0.2305,0.531,0.1955,-0.966,0.901
0.6285,-0.194,-0.823,-0.217,0.7255,-0.508,0.6445,0.4375,-0.0035,-0.1115,-0.164,0.5515,0.1775,-0.926,0.84
0.6075,-0.1355,-0.743,-0.2355,0.675,-0.439,0.6595,0.4565,0.037,-0.061,-0.1155,0.5565,0.157,-0.8765,0.7915
0.5885,-0.104,-0.6925,-0.242,0.6405,-0.398,0.679,0.476,0.0775,-0.0105,-0.0685,0.565,0.139,-0.848,0.746
0.5655,-0.048,-0.6135,-0.259,0.5895,-0.3305,0.704,0.4975,0.1285,0.055,-0.0025,0.5775,0.1145,-0.804,0.687
0.532,0.025,-0.507,-0.2785,0.5195,-0.2405,0.7275,0.5195,0.187,0.131,0.0735,0.593,0.0875,-0.741,0.6245
0.4995,0.1215,-0.378,-0.31,0.439,-0.128,0.757,0.544,0.2615,0.2285,0.175,0.6335,0.0685,-0.6525,0.548
0.4575,0.212,-0.246,-0.3345,0.352,-0.0165,0.7865,0.5685,0.3325,0.3225,0.2715,0.6685,0.0465,-0.5715,0.4705
0.4015,0.2805,-0.121,-0.3405,0.2615,0.08,0.8045,0.5835,0.392,0.4035,0.356,0.6875,0.0225,-0.4945,0.4015
0.3365,0.341,0.005,-0.3385,0.166,0.173,0.826,0.6045,0.4505,0.48,0.4365,0.7,-0.0065,-0.429,0.33
0.2915,0.381,0.0895,-0.336,0.101,0.2355,0.856,0.6355,0.503,0.546,0.499,0.7035,-0.036,-0.394,0.2705
0.2705,0.4115,0.141,-0.3405,0.065,0.2765,0.887,0.666,0.549,0.596,0.5465,0.711,-0.058,-0.363,0.2215
0.268,0.4565,0.189,-0.362,0.0395,0.323,0.921,0.6965,0.5935,0.6455,0.591,0.726,-0.0795,-0.3415,0.169
0.276,0.513,0.2365,-0.394,0.0195,0.375,0.958,0.729,0.6405,0.702,0.644,0.7485,-0.098,-0.3125,0.1185
0.248,0.5195,0.2715,-0.3835,-0.012,0.3955,0.9695,0.7445,0.665,0.7305,0.6735,0.751,-0.109,-0.2975,0.09
0.2145,0.5155,0.3015,-0.365,-0.0435,0.4085,0.9705,0.748,0.677,0.7455,0.6895,0.743,-0.1185,-0.2925,0.067
0.202,0.5295,0.3275,-0.3655,-0.063,0.429,0.9765,0.757,0.695,0.7675,0.7105,0.7485,-0.124,-0.2835,0.0465
0.19,0.5435,0.3535,-0.3665,-0.0815,0.4485,0.9845,0.7645,0.7145,0.79,0.7325,0.757,-0.1275,-0.277,0.024
0.1825,0.56,0.378,-0.371,-0.098,0.469,0.992,0.773,0.7345,0.813,0.7545,0.768,-0.13,-0.2635,0.0025
0.1775,0.567,0.3895,-0.372,-0.106,0.4785,1.001,0.7855,0.751,0.835,0.7755,0.779,-0.13,-0.258,-0.012
0.1725,0.577,0.4045,-0.3745,-0.116,0.491,1.011,0.7955,0.766,0.8515,0.7935,0.7875,-0.1315,-0.253,-0.03
0.1695,0.5915,0.4225,-0.3805,-0.1265,0.507,1.0115,0.801,0.7775,0.865,0.806,0.7925,-0.135,-0.24,-0.046
0.166,0.6075,0.4415,-0.3865,-0.138,0.525,1.015,0.807,0.79,0.8805,0.8235,0.798,-0.138,-0.228,-0.062
0.1615,0.62,0.4585,-0.3905,-0.1485,0.539,1.025,0.817,0.805,0.898,0.84,0.807,-0.1415,-0.2185,-0.077
0.159,0.631,0.472,-0.395,-0.1565,0.552,1.033,0.826,0.819,0.913,0.854,0.8125,-0.146,-0.212,-0.0905
0.16,0.645,0.485,-0.402,-0.1625,0.5655,1.039,0.832,0.83,0.9245,0.8665,0.8175,-0.148,-0.2065,-0.101
0.1605,0.658,0.498,-0.409,-0.1685,0.5785,1.042,0.836,0.839,0.9375,0.8765,0.8225,-0.1495,-0.1975,-0.1105
0.1525,0.6565,0.504,-0.404,-0.1755,0.5805,1.047,0.8395,0.849,0.947,0.8875,0.829,-0.1505,-0.1935,-0.1185
0.151,0.6405,0.4895,-0.3955,-0.1695,0.5655,1.055,0.85,0.8615,0.9585,0.8985,0.836,-0.1545,-0.207,-0.1225
0.15,0.6415,0.4915,-0.3955,-0.1705,0.5665,1.054,0.8495,0.8655,0.963,0.9045,0.8325,-0.159,-0.2145,-0.128
0.145,0.6495,0.504,-0.397,-0.1795,0.577,1.049,0.8435,0.8645,0.963,0.905,0.83,-0.159,-0.208,-0.13
0.143,0.6545,0.5115,-0.3985,-0.184,0.583,1.05,0.8445,0.869,0.9695,0.909,0.831,-0.1605,-0.209,-0.134
0.1385,0.655,0.517,-0.3965,-0.189,0.586,1.0515,0.8455,0.871,0.973,0.912,0.8275,-0.165,-0.207,-0.14
0.138,0.6575,0.52,-0.3975,-0.191,0.589,1.0555,0.8505,0.878,0.98,0.9175,0.829,-0.1665,-0.198,-0.1465
0.1415,0.6675,0.526,-0.4045,-0.192,0.597,1.0605,0.8575,0.8855,0.987,0.924,0.8325,-0.1685,-0.1855,-0.1515
0.142,0.673,0.531,-0.407,-0.1945,0.602,1.064,0.8595,0.89,0.9925,0.928,0.834,-0.171,-0.18,-0.1555
0.139,0.6785,0.54,-0.4085,-0.2005,0.6095,1.0685,0.863,0.894,0.997,0.93,0.8335,-0.1755,-0.1885,-0.16
0.1335,0.672,0.539,-0.4025,-0.203,0.606,1.069,0.8655,0.892,0.996,0.929,0.829,-0.177,-0.1955,-0.1615
0.124,0.663,0.539,-0.3935,-0.2075,0.6015,1.067,0.8655,0.893,0.997,0.931,0.8265,-0.177,-0.195,-0.1665
0.13,0.6695,0.5395,-0.3995,-0.205,0.605,1.0755,0.873,0.9035,1.006,0.94,0.8315,-0.1795,-0.195,-0.1705
0.1325,0.6725,0.5405,-0.4025,-0.204,0.607,1.0785,0.8765,0.9095,1.0135,0.9455,0.836,-0.181,-0.1845,-0.174
0.125,0.672,0.5465,-0.3985,-0.2105,0.6095,1.0745,0.875,0.909,1.017,0.9465,0.8345,-0.1825,-0.1805,-0.177
0.1275,0.6755,0.548,-0.4015,-0.2105,0.6125,1.0765,0.877,0.913,1.021,0.95,0.8365,-0.1835,-0.185,-0.1785
0.1255,0.679,0.5535,-0.402,-0.214,0.6165,1.081,0.8795,0.9185,1.0235,0.9535,0.8355,-0.189,-0.185,-0.182
0.1235,0.6835,0.56,-0.4035,-0.2185,0.622,1.0875,0.8825,0.921,1.0295,0.959,0.838,-0.191,-0.1815,-0.1875
0.121,0.687,0.566,-0.404,-0.2225,0.627,1.089,0.883,0.9265,1.0345,0.96,0.837,-0.1965,-0.1705,-0.1915
0.117,0.686,0.569,-0.4015,-0.226,0.628,1.083,0.88,0.9305,1.041,0.968,0.8405,-0.196,-0.1685,-0.182
0.118,0.6865,0.5685,-0.402,-0.2255,0.6275,1.07,0.88,0.929,1.0345,0.9615,0.84,-0.198,-0.1685,-0.1695
0.1205,0.693,0.5725,-0.4065,-0.226,0.633,1.0645,0.879,0.932,1.0375,0.959,0.83,-0.206,-0.1655,-0.1695
0.1145,0.6975,0.583,-0.4055,-0.2345,0.6405,1.054,0.8665,0.9305,1.0505,0.974,0.837,-0.1955,-0.1625,-0.1815
0.132,0.716,0.5845,-0.424,-0.226,0.6505,1.052,0.8715,0.932,1.049,0.974,0.8395,-0.194,-0.161,-0.1895
0.143,0.7265,0.5835,-0.4345,-0.22,0.655,1.073,0.8855,0.9395,1.053,0.976,0.8405,-0.199,-0.169,-0.186
0.131,0.7185,0.5875,-0.4245,-0.228,0.653,1.0765,0.883,0.938,1.0505,0.9755,0.838,-0.2025,-0.174,-0.1795
0.1285,0.7195,0.591,-0.4235,-0.231,0.6555,1.0805,0.886,0.9395,1.052,0.975,0.836,-0.205,-0.1655,-0.1835
0.117,0.705,0.588,-0.411,-0.2355,0.647,1.0945,0.89,0.9355,1.049,0.9695,0.832,-0.2045,-0.1645,-0.21
0.118,0.704,0.586,-0.4105,-0.2345,0.6455,1.107,0.892,0.936,1.047,0.9695,0.8295,-0.206,-0.1575,-0.2305
0.1095,0.7,0.5905,-0.4045,-0.2405,0.6455,1.1055,0.8895,0.935,1.0465,0.969,0.827,-0.2075,-0.156,-0.2285
0.0995,0.691,0.5915,-0.395,-0.246,0.6415,1.0945,0.884,0.9315,1.045,0.9665,0.822,-0.2065,-0.162,-0.225
0.099,0.695,0.596,-0.3965,-0.2485,0.6455,1.097,0.8855,0.936,1.051,0.9705,0.8235,-0.208,-0.1575,-0.2275
0.11,0.7065,0.5965,-0.408,-0.243,0.6515,1.1125,0.897,0.946,1.0615,0.979,0.831,-0.214,-0.1555,-0.235
0.1165,0.708,0.5915,-0.412,-0.2375,0.65,1.1185,0.9045,0.952,1.0675,0.987,0.8345,-0.216,-0.157,-0.236
0.1025,0.6905,0.588,-0.396,-0.2425,0.639,1.11,0.901,0.9475,1.0615,0.98,0.8255,-0.214,-0.1685,-0.2305
0.107,0.6905,0.5835,-0.3985,-0.2385,0.6375,1.113,0.9035,0.95,1.064,0.9815,0.8275,-0.2155,-0.1705,-0.2325
0.11,0.6915,0.5815,-0.4005,-0.236,0.637,1.118,0.9075,0.956,1.0695,0.986,0.8285,-0.2195,-0.1715,-0.235
0.1105,0.692,0.5815,-0.401,-0.2355,0.637,1.123,0.9135,0.9625,1.075,0.9905,0.832,-0.221,-0.175,-0.2355
0.111,0.6925,0.5815,-0.4015,-0.2355,0.6375,1.1235,0.9125,0.965,1.077,0.9925,0.8325,-0.223,-0.1765,-0.2365
0.1085,0.693,0.5845,-0.4005,-0.238,0.639,1.118,0.9085,0.964,1.074,0.9895,0.8255,-0.229,-0.1795,-0.238
0.112,0.698,0.5855,-0.4045,-0.237,0.642,1.121,0.9115,0.968,1.0795,0.9935,0.83,-0.229,-0.1795,-0.2395
0.114,0.697,0.583,-0.4055,-0.2345,0.6405,1.123,0.913,0.972,1.0825,0.9955,0.833,-0.2285,-0.1815,-0.239
0.109,0.6955,0.5865,-0.402,-0.239,0.6415,1.125,0.9175,0.9725,1.0845,0.996,0.829,-0.233,-0.181,-0.2425
0.1105,0.697,0.586,-0.4035,-0.238,0.6415,1.123,0.917,0.9715,1.084,0.994,0.827,-0.2345,-0.175,-0.241
0.1125,0.6975,0.585,-0.4045,-0.236,0.6415,1.121,0.914,0.9685,1.0795,0.99,0.8275,-0.2325,-0.1685,-0.238
0.1095,0.6955,0.586,-0.402,-0.2385,0.641,1.1255,0.921,0.9765,1.0905,1.0005,0.828,-0.2365,-0.169,-0.244
0.108,0.692,0.584,-0.3995,-0.238,0.638,1.1265,0.924,0.982,1.096,1.006,0.8275,-0.239,-0.172,-0.2465
0.108,0.69,0.5825,-0.3985,-0.2375,0.6365,1.13,0.927,0.9845,1.096,1.004,0.829,-0.2385,-0.1725,-0.2455
0.1125,0.6965,0.5835,-0.404,-0.2355,0.64,1.137,0.936,0.993,1.1035,1.011,0.834,-0.241,-0.165,-0.2455
0.109,0.6975,0.5885,-0.403,-0.2395,0.643,1.1335,0.9315,0.9925,1.1015,1.0095,0.832,-0.2425,-0.1625,-0.241
0.108,0.696,0.588,-0.4015,-0.24,0.642,1.129,0.9265,0.991,1.102,1.0085,0.829,-0.2435,-0.1695,-0.24
0.1035,0.691,0.5875,-0.397,-0.242,0.6395,1.128,0.9255,0.992,1.1015,1.009,0.827,-0.245,-0.1695,-0.2435
0.0995,0.6885,0.589,-0.394,-0.245,0.639,1.1345,0.9325,0.999,1.105,1.0115,0.8285,-0.2485,-0.166,-0.246
0.104,0.6905,0.587,-0.397,-0.2415,0.639,1.1415,0.94,1.0055,1.112,1.015,0.8325,-0.251,-0.1705,-0.2445
0.095,0.6805,0.5855,-0.3875,-0.2455,0.6335,1.1365,0.9355,1.0005,1.1075,1.0105,0.827,-0.2515,-0.1735,-0.242
0.1045,0.6915,0.587,-0.3975,-0.2415,0.6395,1.145,0.9415,1.006,1.1125,1.0155,0.829,-0.2545,-0.166,-0.254
0.114,0.701,0.587,-0.4075,-0.2365,0.6445,1.152,0.9455,1.01,1.1175,1.019,0.8285,-0.2585,-0.1645,-0.2635
0.11,0.6905,0.581,-0.4,-0.2355,0.636,1.1535,0.947,1.0095,1.1165,1.0165,0.825,-0.2595,-0.1775,-0.263
0.113,0.6945,0.5815,-0.4035,-0.2345,0.6385,1.158,0.951,1.0155,1.12,1.0195,0.8265,-0.2625,-0.18,-0.266
0.1085,0.6935,0.585,-0.4005,-0.2385,0.6395,1.151,0.943,1.0135,1.12,1.0195,0.8225,-0.2655,-0.1765,-0.2685
0.1115,0.6975,0.5865,-0.404,-0.2375,0.642,1.1585,0.949,1.0185,1.1265,1.025,0.8235,-0.2685,-0.174,-0.2745
0.1095,0.693,0.5835,-0.401,-0.237,0.6385,1.165,0.954,1.0205,1.1285,1.025,0.8215,-0.271,-0.18,-0.2785
0.093,0.6715,0.5785,-0.382,-0.243,0.6255,1.1505,0.9445,1.013,1.12,1.017,0.8125,-0.269,-0.1925,-0.2755
0.0905,0.672,0.582,-0.381,-0.246,0.6275,1.151,0.9475,1.017,1.124,1.0195,0.8115,-0.2705,-0.1915,-0.277
0.092,0.6785,0.5865,-0.385,-0.247,0.6325,1.1615,0.9555,1.0255,1.13,1.0245,0.8145,-0.277,-0.183,-0.281
0.0875,0.6775,0.59,-0.382,-0.2515,0.634,1.164,0.9585,1.0305,1.134,1.0255,0.8145,-0.281,-0.18,-0.278
0.0905,0.679,0.5885,-0.3845,-0.249,0.634,1.165,0.9625,1.0355,1.138,1.0295,0.815,-0.284,-0.1865,-0.272
0.0955,0.683,0.5875,-0.389,-0.246,0.6355,1.1695,0.9685,1.0425,1.144,1.037,0.8175,-0.2875,-0.1845,-0.275
0.0845,0.6765,0.5915,-0.38,-0.2535,0.6345,1.1735,0.9695,1.0455,1.1455,1.036,0.814,-0.2905,-0.181,-0.286
0.0835,0.674,0.5905,-0.3785,-0.2535,0.6325,1.1755,0.9695,1.048,1.147,1.0375,0.8125,-0.2935,-0.1835,-0.293
0.0855,0.6735,0.588,-0.379,-0.2515,0.631,1.1785,0.973,1.0525,1.1505,1.0395,0.8105,-0.2985,-0.1895,-0.2955
0.0755,0.664,0.5885,-0.3695,-0.2565,0.6265,1.182,0.976,1.054,1.152,1.039,0.8075,-0.302,-0.197,-0.3005
0.0775,0.6685,0.5905,-0.373,-0.2565,0.63,1.186,0.9815,1.0625,1.1605,1.049,0.814,-0.3025,-0.1915,-0.303
0.083,0.6765,0.5935,-0.3795,-0.255,0.6355,1.1905,0.9855,1.069,1.169,1.056,0.816,-0.306,-0.1835,-0.306
0.0825,0.6745,0.592,-0.3785,-0.2545,0.6335,1.19,0.9865,1.0715,1.173,1.0575,0.8135,-0.311,-0.181,-0.308
0.0805,0.68,0.599,-0.38,-0.259,0.6395,1.194,0.9915,1.0825,1.1815,1.0665,0.819,-0.3135,-0.1775,-0.3125
0.0725,0.687,0.615,-0.3795,-0.2715,0.6515,1.203,0.999,1.094,1.1925,1.076,0.827,-0.315,-0.1715,-0.317
0.076,0.6875,0.6115,-0.3815,-0.2675,0.65,1.205,0.9985,1.0955,1.196,1.0775,0.8245,-0.3185,-0.1715,-0.32
0.088,0.6895,0.602,-0.3885,-0.257,0.646,1.2065,1.001,1.098,1.1965,1.0785,0.82,-0.3235,-0.1785,-0.325
0.0975,0.676,0.5785,-0.3865,-0.2405,0.6275,1.1995,0.9995,1.0945,1.1895,1.0705,0.8065,-0.3285,-0.1855,-0.324
0.1,0.664,0.5635,-0.382,-0.2315,0.6135,1.198,0.998,1.092,1.185,1.0655,0.7965,-0.333,-0.189,-0.326
0.102,0.668,0.566,-0.3845,-0.232,0.6175,1.2095,1.0065,1.1,1.193,1.0695,0.797,-0.34,-0.1925,-0.332
0.102,0.675,0.573,-0.3885,-0.2355,0.6245,1.2205,1.014,1.1075,1.202,1.079,0.7955,-0.3485,-0.1835,-0.338
0.0715,0.6815,0.6105,-0.3765,-0.2695,0.646,1.237,1.0275,1.124,1.2145,1.0885,0.806,-0.353,-0.169,-0.3365
0.0515,0.6785,0.6275,-0.365,-0.288,0.6535,1.245,1.0355,1.1315,1.222,1.093,0.8145,-0.355,-0.17,-0.3345
0.044,0.6795,0.6355,-0.3615,-0.2955,0.658,1.253,1.044,1.1405,1.229,1.1,0.8155,-0.3595,-0.169,-0.342
0.129,0.679,0.55,-0.404,-0.2105,0.615,1.234,1.0245,1.1215,1.2065,1.075,0.7855,-0.3665,-0.17,-0.3495
0.1145,0.671,0.5565,-0.3925,-0.221,0.614,1.2385,1.028,1.126,1.212,1.081,0.7875,-0.371,-0.1785,-0.3505
-0.0145,0.6605,0.675,-0.3225,-0.3445,0.668,1.2745,1.0645,1.1675,1.2535,1.1175,0.822,-0.3755,-0.1825,-0.346
0.0105,0.656,0.646,-0.333,-0.3175,0.6515,1.267,1.056,1.161,1.2475,1.109,0.808,-0.3805,-0.1865,-0.346
0.0375,0.658,0.6205,-0.3475,-0.292,0.6395,1.2605,1.049,1.1535,1.242,1.101,0.795,-0.385,-0.185,-0.3505
0.0405,0.6655,0.625,-0.3525,-0.2925,0.6455,1.265,1.056,1.1645,1.2515,1.105,0.7965,-0.39,-0.174,-0.3655
0.105,0.702,0.597,-0.403,-0.246,0.6495,1.2785,1.063,1.173,1.26,1.1105,0.798,-0.3975,-0.1705,-0.386
0.1635,0.7035,0.54,-0.433,-0.1885,0.622,1.2715,1.0525,1.164,1.251,1.0965,0.7815,-0.402,-0.175,-0.393
0.069,0.6805,0.6115,-0.3745,-0.271,0.6465,1.2935,1.0755,1.1875,1.273,1.1175,0.798,-0.405,-0.1785,-0.39
-0.0055,0.684,0.689,-0.339,-0.3465,0.6865,1.3235,1.1065,1.2185,1.3045,1.1485,0.823,-0.4105,-0.1725,-0.394
0.0395,0.683,0.6435,-0.361,-0.3015,0.6635,1.3085,1.094,1.209,1.2945,1.137,0.8055,-0.4135,-0.171,-0.3955
0.0435,0.6785,0.635,-0.3605,-0.296,0.657,1.3055,1.091,1.2055,1.293,1.1345,0.7995,-0.4165,-0.1725,-0.396
0.035,0.669,0.634,-0.352,-0.2995,0.6515,1.2995,1.0855,1.201,1.289,1.1275,0.7915,-0.42,-0.1725,-0.3965
0.03,0.6665,0.6365,-0.348,-0.303,0.6515,1.2975,1.0805,1.199,1.2875,1.123,0.7845,-0.425,-0.1845,-0.3975
0.0355,0.666,0.6305,-0.3505,-0.2975,0.6485,1.296,1.078,1.2015,1.2885,1.123,0.782,-0.429,-0.192,-0.3995
0.0395,0.6685,0.629,-0.3535,-0.295,0.649,1.297,1.0765,1.2035,1.2895,1.1225,0.7765,-0.434,-0.1935,-0.4
0.0355,0.675,0.64,-0.355,-0.3025,0.658,1.3025,1.0825,1.2075,1.294,1.125,0.7755,-0.4385,-0.175,-0.406
0.037,0.6765,0.6395,-0.3565,-0.3015,0.6585,1.305,1.0865,1.2145,1.2985,1.1265,0.7715,-0.444,-0.154,-0.4095
0.0425,0.6795,0.6375,-0.3605,-0.2975,0.659,1.3065,1.0875,1.221,1.3035,1.1315,0.7765,-0.4435,-0.158,-0.4095
0.044,0.68,0.636,-0.362,-0.296,0.6585,1.3095,1.096,1.223,1.2985,1.122,0.768,-0.453,-0.165,-0.4105
0.0415,0.684,0.6425,-0.3625,-0.3005,0.6635,1.312,1.096,1.2305,1.311,1.129,0.762,-0.4595,-0.1675,-0.417
0.0405,0.6895,0.649,-0.3645,-0.3045,0.6695,1.307,1.089,1.235,1.3245,1.145,0.7725,-0.4505,-0.158,-0.4215
0.0395,0.692,0.6525,-0.3655,-0.3065,0.6725,1.3105,1.095,1.2405,1.324,1.142,0.7665,-0.459,-0.153,-0.425
0.0345,0.691,0.6565,-0.3625,-0.3105,0.674,1.3065,1.0915,1.2425,1.3265,1.142,0.761,-0.4635,-0.1605,-0.428
0.034,0.692,0.658,-0.3625,-0.312,0.675,1.3025,1.091,1.2465,1.3315,1.145,0.7605,-0.466,-0.1615,-0.432
0.034,0.6955,0.6615,-0.364,-0.3135,0.6785,1.307,1.097,1.257,1.342,1.152,0.7605,-0.4725,-0.16,-0.439
0.035,0.7,0.665,-0.3675,-0.3145,0.683,1.31,1.1005,1.264,1.35,1.159,0.7635,-0.474,-0.154,-0.4435
0.0315,0.698,0.667,-0.3645,-0.3175,0.6825,1.312,1.104,1.271,1.3545,1.161,0.7605,-0.4775,-0.153,-0.4465
0.022,0.684,0.6615,-0.353,-0.3195,0.673,1.3075,1.1025,1.271,1.354,1.1585,0.754,-0.4785,-0.1675,-0.444
0.028,0.69,0.662,-0.359,-0.3165,0.676,1.314,1.109,1.279,1.361,1.1645,0.756,-0.4815,-0.169,-0.447
0.025,0.6905,0.665,-0.3575,-0.3195,0.678,1.3095,1.109,1.2835,1.3685,1.1695,0.7545,-0.4845,-0.1665,-0.4505
0.022,0.692,0.67,-0.3565,-0.3235,0.681,1.3105,1.1105,1.289,1.3755,1.175,0.754,-0.488,-0.158,-0.4545
0.029,0.7045,0.6755,-0.3665,-0.3225,0.6905,1.3185,1.1195,1.303,1.3865,1.1845,0.757,-0.493,-0.146,-0.46
0.0195,0.69,0.6705,-0.3545,-0.325,0.6805,1.306,1.115,1.3025,1.3865,1.182,0.751,-0.495,-0.158,-0.458
0.0125,0.684,0.672,-0.348,-0.3295,0.678,1.3015,1.112,1.3055,1.3905,1.1825,0.747,-0.499,-0.1625,-0.4605
0.0175,0.6935,0.6755,-0.355,-0.3285,0.6845,1.302,1.1185,1.317,1.403,1.1905,0.7495,-0.5035,-0.1565,-0.4645
0.0185,0.7035,0.685,-0.361,-0.3325,0.6945,1.3005,1.1235,1.3275,1.4135,1.1975,0.7515,-0.5075,-0.1455,-0.475
0.029,0.725,0.696,-0.377,-0.333,0.711,1.312,1.132,1.341,1.4275,1.2095,0.755,-0.5145,-0.1305,-0.4865
0.04,0.7375,0.6975,-0.3885,-0.3285,0.7175,1.3245,1.143,1.3535,1.4415,1.2205,0.7595,-0.519,-0.127,-0.487
0.027,0.727,0.7,-0.3765,-0.336,0.7135,1.321,1.1415,1.355,1.4445,1.2205,0.7555,-0.5195,-0.1255,-0.4865
0.0135,0.7155,0.7025,-0.3645,-0.344,0.7095,1.3225,1.142,1.358,1.4475,1.22,0.751,-0.522,-0.126,-0.493
0.02,0.7275,0.7075,-0.3735,-0.343,0.7175,1.3365,1.1505,1.3705,1.458,1.229,0.7565,-0.5275,-0.127,-0.5045
0.024,0.7385,0.715,-0.381,-0.345,0.727,1.3545,1.16,1.3805,1.4655,1.2365,0.7575,-0.535,-0.124,-0.513
0.0125,0.7305,0.718,-0.371,-0.3525,0.7245,1.3645,1.166,1.384,1.4695,1.237,0.7525,-0.539,-0.123,-0.515
-0.0025,0.723,0.7255,-0.36,-0.3635,0.7245,1.362,1.1645,1.3835,1.472,1.238,0.749,-0.539,-0.118,-0.518
-0.009,0.7235,0.7325,-0.357,-0.37,0.7285,1.361,1.1655,1.3895,1.478,1.2405,0.748,-0.544,-0.113,-0.5245
0.0005,0.735,0.7345,-0.3675,-0.3665,0.735,1.36,1.167,1.399,1.4875,1.249,0.752,-0.5455,-0.12,-0.5285
0.0005,0.746,0.7455,-0.373,-0.372,0.746,1.359,1.1695,1.406,1.495,1.2525,0.749,-0.551,-0.114,-0.5345
-0.002,0.7465,0.7475,-0.372,-0.3745,0.747,1.359,1.177,1.4145,1.5035,1.2605,0.7515,-0.554,-0.1075,-0.538
-0.005,0.742,0.747,-0.368,-0.3755,0.7445,1.3575,1.1755,1.414,1.5025,1.252,0.7385,-0.5615,-0.1125,-0.537
-0.016,0.736,0.752,-0.3595,-0.3835,0.7445,1.3575,1.1745,1.417,1.505,1.2485,0.732,-0.5665,-0.1045,-0.541
-0.02,0.73,0.75,-0.355,-0.384,0.7405,1.3625,1.1805,1.428,1.5175,1.2705,0.7495,-0.558,-0.1015,-0.5475
-0.0175,0.7345,0.752,-0.358,-0.384,0.743,1.3655,1.184,1.434,1.524,1.273,0.746,-0.563,-0.103,-0.55
-0.011,0.7445,0.7555,-0.3665,-0.3825,0.75,1.369,1.19,1.4425,1.533,1.2775,0.7475,-0.568,-0.0955,-0.555
-0.01,0.743,0.753,-0.366,-0.381,0.748,1.3775,1.1985,1.449,1.5395,1.2815,0.748,-0.574,-0.0945,-0.559
-0.023,0.724,0.747,-0.35,-0.3845,0.736,1.3685,1.194,1.445,1.5335,1.274,0.739,-0.5745,-0.1095,-0.554
-0.0315,0.7125,0.7445,-0.3405,-0.3875,0.729,1.3585,1.1865,1.444,1.533,1.2745,0.736,-0.572,-0.123,-0.553
-0.028,0.7075,0.7355,-0.3395,-0.381,0.7215,1.3685,1.195,1.458,1.548,1.2885,0.7455,-0.576,-0.1315,-0.5565
-0.021,0.7195,0.7405,-0.349,-0.38,0.73,1.3705,1.1995,1.4675,1.5575,1.2975,0.752,-0.578,-0.1195,-0.553
-0.0185,0.7455,0.764,-0.3635,-0.391,0.755,1.3655,1.197,1.4675,1.5565,1.2965,0.743,-0.5835,-0.0975,-0.5435
-0.0155,0.7635,0.779,-0.374,-0.397,0.7715,1.3675,1.202,1.474,1.564,1.3045,0.7445,-0.5885,-0.085,-0.538
-0.016,0.7695,0.7855,-0.3765,-0.4005,0.778,1.369,1.203,1.477,1.5685,1.308,0.7455,-0.588,-0.082,-0.551
-0.0325,0.7315,0.764,-0.349,-0.398,0.7485,1.374,1.207,1.48,1.57,1.3105,0.7455,-0.5875,-0.1125,-0.5765
-0.034,0.7025,0.737,-0.334,-0.385,0.72,1.384,1.2185,1.4895,1.5795,1.3195,0.754,-0.5885,-0.1315,-0.588
-0.0275,0.7145,0.742,-0.3435,-0.3845,0.7285,1.384,1.22,1.4945,1.5855,1.325,0.755,-0.591,-0.119,-0.585
-0.018,0.735,0.753,-0.3585,-0.385,0.744,1.3865,1.222,1.4985,1.5925,1.332,0.7595,-0.589,-0.1055,-0.5845
-0.0085,0.747,0.7555,-0.369,-0.3815,0.7515,1.392,1.2265,1.5035,1.5985,1.3385,0.767,-0.5855,-0.098,-0.5915
-0.0165,0.744,0.7605,-0.3635,-0.388,0.7525,1.3795,1.215,1.498,1.595,1.335,0.762,-0.583,-0.1,-0.5975
-0.021,0.7415,0.7625,-0.36,-0.391,0.7525,1.372,1.21,1.4955,1.5945,1.3355,0.762,-0.5775,-0.1,-0.5945
-0.0185,0.747,0.7655,-0.364,-0.3915,0.7565,1.3785,1.216,1.503,1.603,1.344,0.77,-0.5765,-0.0975,-0.598
-0.013,0.7545,0.7675,-0.3705,-0.39,0.761,1.38,1.216,1.5045,1.608,1.3485,0.773,-0.578,-0.0965,-0.6015
-0.0055,0.7615,0.767,-0.378,-0.3855,0.7645,1.3815,1.217,1.5075,1.613,1.353,0.7775,-0.575,-0.0955,-0.5995
-0.0045,0.765,0.7695,-0.38,-0.3865,0.7675,1.3765,1.213,1.5065,1.612,1.3545,0.78,-0.5705,-0.0975,-0.5965
-0.004,0.766,0.77,-0.381,-0.3865,0.7685,1.372,1.21,1.5035,1.61,1.3565,0.7815,-0.5655,-0.0975,-0.5935
-0.0025,0.764,0.7665,-0.3805,-0.384,0.7655,1.37,1.2105,1.503,1.6095,1.3585,0.785,-0.5605,-0.0965,-0.5905
-0.003,0.757,0.76,-0.377,-0.381,0.759,1.363,1.208,1.4965,1.606,1.357,0.787,-0.554,-0.1,-0.581
0.0025,0.765,0.763,-0.3835,-0.38,0.7645,1.358,1.204,1.4955,1.607,1.362,0.792,-0.5485,-0.0985,-0.579
0.0095,0.77,0.761,-0.3895,-0.3755,0.7655,1.3535,1.1995,1.4915,1.6045,1.364,0.795,-0.543,-0.104,-0.576
0.018,0.7695,0.7515,-0.3935,-0.3665,0.761,1.3515,1.1965,1.487,1.601,1.3645,0.798,-0.537,-0.1075,-0.5705
0.019,0.77,0.751,-0.394,-0.3655,0.761,1.3485,1.1945,1.4835,1.598,1.366,0.8015,-0.5295,-0.102,-0.568
0.016,0.7695,0.7535,-0.3925,-0.3685,0.7615,1.35,1.1945,1.478,1.597,1.3665,0.8055,-0.523,-0.101,-0.5645
0.0195,0.7745,0.755,-0.397,-0.3675,0.7655,1.351,1.1915,1.475,1.598,1.3705,0.813,-0.517,-0.0935,-0.5635
0.0205,0.775,0.7545,-0.3975,-0.3665,0.765,1.3545,1.195,1.474,1.598,1.3755,0.822,-0.51,-0.09,-0.5625
0.0235,0.7715,0.7485,-0.3975,-0.362,0.76,1.3515,1.1925,1.468,1.5925,1.375,0.8255,-0.5025,-0.0965,-0.557
0.022,0.761,0.7395,-0.391,-0.358,0.7505,1.343,1.186,1.4595,1.585,1.372,0.8285,-0.493,-0.1055,-0.55
0.017,0.7465,0.7295,-0.3815,-0.3555,0.738,1.337,1.178,1.453,1.582,1.3735,0.8365,-0.4835,-0.113,-0.544
0.0155,0.734,0.718,-0.3745,-0.351,0.726,1.3145,1.157,1.4345,1.5655,1.3655,0.8355,-0.4705,-0.1255,-0.525
0.0175,0.7485,0.731,-0.383,-0.3565,0.74,1.301,1.1475,1.4185,1.551,1.355,0.831,-0.464,-0.1185,-0.512
0.023,0.7675,0.745,-0.395,-0.3605,0.7565,1.296,1.145,1.409,1.543,1.3515,0.8325,-0.455,-0.096,-0.505
0.0315,0.768,0.7365,-0.3995,-0.352,0.7525,1.297,1.1455,1.4035,1.541,1.357,0.8465,-0.441,-0.0995,-0.5005
0.0325,0.761,0.7285,-0.3965,-0.3475,0.745,1.2915,1.1365,1.393,1.5345,1.356,0.8535,-0.43,-0.106,-0.4955
0.0275,0.7495,0.722,-0.388,-0.347,0.736,1.281,1.1215,1.3765,1.519,1.345,0.852,-0.42,-0.1105,-0.487
0.053,0.7725,0.7195,-0.4125,-0.333,0.746,1.287,1.122,1.3735,1.5175,1.3505,0.865,-0.4115,-0.108,-0.4925
0.0625,0.7775,0.715,-0.42,-0.3255,0.7465,1.2775,1.115,1.3605,1.508,1.348,0.8715,-0.398,-0.104,-0.487
0.047,0.753,0.706,-0.4,-0.329,0.73,1.262,1.1,1.341,1.4905,1.338,0.871,-0.3825,-0.1145,-0.4745
0.057,0.76,0.7025,-0.408,-0.322,0.7315,1.255,1.092,1.3295,1.479,1.336,0.879,-0.3705,-0.111,-0.4655
0.064,0.772,0.708,-0.4175,-0.322,0.7405,1.2465,1.0825,1.3175,1.4685,1.333,0.8845,-0.3595,-0.107,-0.457
0.068,0.778,0.7105,-0.423,-0.321,0.7445,1.2385,1.074,1.3035,1.4545,1.325,0.8885,-0.3475,-0.103,-0.447
0.0755,0.781,0.7055,-0.428,-0.3145,0.7435,1.229,1.0635,1.286,1.4385,1.3155,0.894,-0.3355,-0.101,-0.435
0.0785,0.779,0.7005,-0.4285,-0.3105,0.74,1.2235,1.0555,1.28,1.436,1.3205,0.9015,-0.324,-0.107,-0.429
0.0825,0.784,0.702,-0.433,-0.31,0.743,1.2165,1.047,1.268,1.4265,1.316,0.9075,-0.3105,-0.1045,-0.419
0.0885,0.7885,0.7,-0.438,-0.306,0.7445,1.2045,1.0345,1.2505,1.409,1.303,0.9105,-0.2985,-0.0995,-0.408
0.095,0.7875,0.693,-0.441,-0.299,0.7405,1.195,1.025,1.2375,1.397,1.2965,0.916,-0.2865,-0.1005,-0.398
0.099,0.7845,0.6855,-0.4415,-0.2935,0.7355,1.1875,1.014,1.2215,1.384,1.289,0.921,-0.2735,-0.104,-0.3865
0.1045,0.7825,0.678,-0.4435,-0.2865,0.7305,1.177,1.004,1.208,1.371,1.282,0.927,-0.261,-0.098,-0.375
0.107,0.7835,0.6765,-0.445,-0.285,0.7305,1.168,0.994,1.1935,1.355,1.271,0.932,-0.251,-0.0965,-0.3655
0.1085,0.7765,0.668,-0.442,-0.28,0.7225,1.161,0.9855,1.1795,1.341,1.2615,0.9335,-0.241,-0.0985,-0.3555
0.111,0.773,0.662,-0.4415,-0.2755,0.718,1.154,0.977,1.1645,1.3265,1.2515,0.937,-0.2295,-0.0995,-0.347
0.1165,0.777,0.6605,-0.4465,-0.272,0.719,1.1505,0.9685,1.152,1.3145,1.244,0.9425,-0.2195,-0.1075,-0.338
0.1225,0.7695,0.647,-0.4455,-0.262,0.7085,1.142,0.9605,1.1405,1.3035,1.2375,0.947,-0.2075,-0.114,-0.3245
0.124,0.7635,0.6395,-0.4435,-0.258,0.702,1.135,0.9535,1.1255,1.2895,1.2285,0.9505,-0.1965,-0.1135,-0.314
0.129,0.7635,0.6345,-0.4465,-0.2525,0.6995,1.1295,0.9485,1.1135,1.277,1.2205,0.9535,-0.189,-0.1125,-0.3055
0.14,0.766,0.6265,-0.4525,-0.2435,0.6965,1.1245,0.943,1.104,1.264,1.212,0.957,-0.1815,-0.1145,-0.2955
0.1445,0.7665,0.622,-0.455,-0.239,0.6945,1.1205,0.9365,1.0915,1.251,1.2025,0.9615,-0.1715,-0.1195,-0.2865
0.1425,0.754,0.6115,-0.448,-0.2345,0.683,1.109,0.926,1.072,1.233,1.188,0.9575,-0.163,-0.128,-0.273
0.1455,0.7495,0.604,-0.4475,-0.229,0.677,1.104,0.919,1.0575,1.2165,1.178,0.961,-0.152,-0.126,-0.262
0.152,0.754,0.602,-0.4525,-0.225,0.6785,1.103,0.918,1.0475,1.1955,1.1605,0.957,-0.153,-0.124,-0.256
0.1615,0.7625,0.601,-0.462,-0.2195,0.682,1.0945,0.9095,1.0395,1.1925,1.1565,0.957,-0.148,-0.128,-0.2505
0.1745,0.768,0.5935,-0.471,-0.2095,0.6815,1.088,0.9,1.033,1.1945,1.163,0.972,-0.1315,-0.133,-0.244
0.175,0.758,0.583,-0.4665,-0.204,0.671,1.084,0.897,1.02,1.174,1.1435,0.9655,-0.131,-0.139,-0.235
0.1725,0.749,0.5765,-0.4605,-0.202,0.663,1.0765,0.8915,1.008,1.16,1.1305,0.962,-0.1275,-0.1415,-0.227
0.1815,0.752,0.5705,-0.4665,-0.1945,0.6615,1.0765,0.8955,1.002,1.1525,1.126,0.967,-0.121,-0.1405,-0.2195
0.1865,0.7555,0.569,-0.471,-0.1915,0.6625,1.081,0.8955,0.9955,1.1455,1.1205,0.9685,-0.1195,-0.138,-0.215
0.188,0.758,0.5705,-0.4725,-0.191,0.6645,1.0765,0.8865,0.9855,1.1365,1.1135,0.9675,-0.116,-0.134,-0.21
0.1855,0.7535,0.5685,-0.4695,-0.1915,0.6615,1.0775,0.8865,0.979,1.1275,1.1075,0.9685,-0.1125,-0.1375,-0.2045
0.1765,0.745,0.5685,-0.46,-0.196,0.657,1.079,0.8885,0.9745,1.1205,1.103,0.9685,-0.11,-0.14,-0.204
0.184,0.7435,0.559,-0.4635,-0.1875,0.6515,1.073,0.8795,0.9625,1.1095,1.0915,0.967,-0.1065,-0.148,-0.196
0.191,0.7375,0.5465,-0.464,-0.1775,0.642,1.059,0.863,0.9465,1.095,1.0775,0.9625,-0.1,-0.169,-0.185
0.1885,0.74,0.551,-0.464,-0.1815,0.646,1.0605,0.8625,0.945,1.0895,1.0725,0.963,-0.099,-0.16,-0.1865
0.191,0.742,0.551,-0.466,-0.18,0.6465,1.065,0.8665,0.9405,1.0855,1.0685,0.966,-0.0975,-0.151,-0.1845
0.182,0.726,0.5445,-0.4535,-0.1815,0.6355,1.0495,0.8575,0.927,1.0705,1.055,0.9575,-0.095,-0.16,-0.1745
0.172,0.713,0.541,-0.4425,-0.1845,0.6275,1.04,0.847,0.9165,1.059,1.0415,0.9515,-0.093,-0.157,-0.166
0.1585,0.6885,0.5295,-0.4235,-0.1855,0.609,1.0245,0.8315,0.8985,1.042,1.0245,0.9415,-0.0905,-0.1715,-0.1495
0.156,0.679,0.5235,-0.4175,-0.1835,0.6015,1.0175,0.8215,0.8875,1.03,1.0135,0.934,-0.0905,-0.1705,-0.1435
0.1755,0.7005,0.5245,-0.4375,-0.1745,0.6125,1.023,0.826,0.8915,1.032,1.0185,0.941,-0.089,-0.1615,-0.146
0.214,0.7365,0.5225,-0.475,-0.154,0.6295,1.04,0.8415,0.905,1.0425,1.031,0.955,-0.091,-0.1635,-0.1515
0.25,0.7765,0.5265,-0.513,-0.138,0.652,1.0565,0.855,0.915,1.051,1.0375,0.9675,-0.0905,-0.1595,-0.1575
0.2415,0.764,0.523,-0.5025,-0.1405,0.644,1.0495,0.85,0.905,1.0395,1.028,0.96,-0.088,-0.1655,-0.151
0.2245,0.7425,0.518,-0.483,-0.147,0.6305,1.0535,0.848,0.8965,1.03,1.0175,0.954,-0.091,-0.171,-0.1515
0.2325,0.7415,0.509,-0.4865,-0.1385,0.6255,1.0565,0.8495,0.8945,1.0265,1.0155,0.9545,-0.092,-0.175,-0.148
0.2265,0.729,0.5025,-0.4775,-0.138,0.616,1.051,0.848,0.8895,1.0175,1.008,0.9515,-0.0915,-0.1835,-0.139
0.224,0.715,0.4915,-0.4695,-0.1335,0.6035,1.04,0.84,0.878,1.0045,0.998,0.943,-0.088,-0.1945,-0.137
0.249,0.698,0.449,-0.473,-0.1,0.5735,1.0215,0.8235,0.8545,0.981,0.974,0.919,-0.088,-0.1965,-0.1315
0.204,0.6855,0.482,-0.4445,-0.139,0.584,1.0305,0.829,0.8575,0.983,0.9695,0.929,-0.0855,-0.1965,-0.126
0.162,0.6915,0.5295,-0.4265,-0.184,0.6105,1.043,0.8395,0.8695,0.998,0.986,0.9465,-0.083,-0.1915,-0.13
0.184,0.6965,0.5125,-0.44,-0.1645,0.6045,1.0425,0.8375,0.8645,0.9915,0.979,0.937,-0.0855,-0.182,-0.134
0.1945,0.695,0.5005,-0.4445,-0.153,0.598,1.046,0.8395,0.861,0.985,0.9725,0.9345,-0.085,-0.1845,-0.1315
0.205,0.695,0.49,-0.4495,-0.1425,0.593,1.05,0.841,0.856,0.982,0.9715,0.933,-0.0855,-0.1885,-0.13
0.201,0.692,0.491,-0.446,-0.145,0.5915,1.047,0.835,0.851,0.9765,0.9655,0.9295,-0.085,-0.1915,-0.129
0.1985,0.6905,0.492,-0.4445,-0.1465,0.5915,1.0435,0.827,0.8475,0.974,0.961,0.926,-0.0865,-0.1865,-0.1285
0.2035,0.6915,0.488,-0.447,-0.1425,0.59,1.0435,0.8255,0.8455,0.972,0.959,0.927,-0.087,-0.188,-0.1255
0.2045,0.6945,0.49,-0.449,-0.1425,0.592,1.044,0.8285,0.845,0.97,0.9555,0.925,-0.0875,-0.188,-0.1235
0.206,0.694,0.4885,-0.4495,-0.141,0.591,1.0445,0.8275,0.842,0.9675,0.952,0.9215,-0.089,-0.19,-0.1215
0.201,0.689,0.488,-0.4445,-0.1435,0.589,1.0455,0.8275,0.8415,0.965,0.952,0.9195,-0.09,-0.2005,-0.122
0.2025,0.6875,0.4855,-0.4445,-0.1415,0.587,1.0485,0.8275,0.842,0.964,0.9535,0.9185,-0.0915,-0.1935,-0.123
0.204,0.6895,0.4855,-0.446,-0.141,0.5875,1.052,0.8305,0.8445,0.966,0.954,0.9215,-0.091,-0.192,-0.121
0.204,0.691,0.4865,-0.447,-0.141,0.589,1.0525,0.8305,0.8435,0.9635,0.9515,0.9195,-0.0925,-0.189,-0.123
0.1985,0.691,0.4925,-0.4445,-0.147,0.592,1.0535,0.8295,0.8435,0.9655,0.953,0.921,-0.0925,-0.1835,-0.1235
0.2,0.6915,0.491,-0.4455,-0.145,0.5915,1.056,0.833,0.848,0.9685,0.956,0.922,-0.093,-0.1835,-0.1235
0.195,0.691,0.4955,-0.443,-0.15,0.5935,1.0605,0.8365,0.8505,0.969,0.9575,0.9235,-0.094,-0.1845,-0.1245
0.1915,0.6915,0.5,-0.441,-0.1545,0.596,1.0605,0.8375,0.85,0.9675,0.956,0.9235,-0.094,-0.1895,-0.1255
0.2,0.691,0.491,-0.445,-0.1455,0.591,1.059,0.8345,0.8415,0.9585,0.95,0.919,-0.094,-0.188,-0.1245
0.2005,0.6875,0.487,-0.444,-0.1435,0.5875,1.063,0.8375,0.8375,0.9555,0.9445,0.9165,-0.096,-0.1885,-0.1255
0.2535,0.688,0.4345,-0.4705,-0.0905,0.561,1.0485,0.822,0.819,0.937,0.9255,0.8985,-0.0975,-0.1855,-0.124
0.2165,0.685,0.4685,-0.4505,-0.126,0.577,1.0605,0.836,0.8275,0.9465,0.9365,0.909,-0.0965,-0.187,-0.1215
0.1575,0.6805,0.523,-0.4185,-0.1825,0.602,1.077,0.8545,0.8445,0.964,0.9525,0.9245,-0.0965,-0.194,-0.121
0.2015,0.683,0.4815,-0.442,-0.14,0.5825,1.067,0.844,0.831,0.9485,0.94,0.91,-0.099,-0.198,-0.118
0.2015,0.679,0.4775,-0.44,-0.138,0.5785,1.0625,0.842,0.8285,0.947,0.9365,0.9075,-0.0995,-0.205,-0.1155
0.196,0.6765,0.4805,-0.436,-0.1425,0.5785,1.051,0.8315,0.8245,0.9425,0.932,0.9045,-0.0995,-0.2025,-0.116
0.197,0.678,0.4805,-0.4375,-0.1415,0.5795,1.0595,0.838,0.8275,0.945,0.9345,0.9045,-0.103,-0.205,-0.121
0.189,0.665,0.4765,-0.4265,-0.144,0.571,1.059,0.836,0.8255,0.944,0.9325,0.902,-0.101,-0.215,-0.1205
0.1775,0.656,0.4785,-0.4165,-0.1505,0.5675,1.054,0.8275,0.82,0.939,0.928,0.898,-0.0995,-0.2075,-0.121
0.1765,0.662,0.4855,-0.419,-0.1545,0.574,1.0585,0.831,0.8205,0.94,0.9265,0.897,-0.1015,-0.1975,-0.125
0.1845,0.6735,0.489,-0.429,-0.1525,0.5815,1.0545,0.8285,0.8205,0.94,0.9275,0.8955,-0.102,-0.193,-0.1255
0.184,0.6745,0.4905,-0.429,-0.1535,0.5825,1.052,0.8265,0.8195,0.9405,0.9285,0.897,-0.1,-0.1935,-0.1185
0.188,0.6745,0.4865,-0.431,-0.149,0.581,1.0485,0.8255,0.817,0.939,0.927,0.894,-0.099,-0.195,-0.1095
0.186,0.6755,0.49,-0.4305,-0.152,0.583,1.0505,0.823,0.8125,0.9345,0.9255,0.8915,-0.0995,-0.202,-0.112
0.1755,0.657,0.482,-0.416,-0.153,0.5695,1.0415,0.811,0.7985,0.923,0.914,0.8855,-0.0935,-0.2135,-0.1125
0.173,0.6515,0.4785,-0.412,-0.1525,0.565,1.0325,0.8035,0.7915,0.916,0.9055,0.876,-0.094,-0.2145,-0.113
0.182,0.6635,0.4815,-0.4225,-0.15,0.5725,1.036,0.8065,0.7955,0.92,0.91,0.881,-0.0935,-0.208,-0.1165
0.1885,0.67,0.482,-0.429,-0.1465,0.5765,1.035,0.8075,0.7985,0.925,0.9145,0.8855,-0.0895,-0.199,-0.1195
0.19,0.6745,0.485,-0.432,-0.1475,0.58,1.0335,0.8065,0.7985,0.925,0.916,0.885,-0.0885,-0.199,-0.1155
0.192,0.6775,0.486,-0.4345,-0.147,0.582,1.0325,0.8085,0.8,0.928,0.921,0.889,-0.087,-0.1895,-0.1155
0.191,0.678,0.4875,-0.4345,-0.1485,0.583,1.0235,0.8055,0.802,0.929,0.923,0.889,-0.09,-0.1985,-0.1175
0.186,0.679,0.4935,-0.432,-0.1535,0.5865,1.0165,0.803,0.8035,0.9305,0.925,0.8895,-0.091,-0.205,-0.1135
0.186,0.683,0.497,-0.434,-0.156,0.5905,1.019,0.8095,0.8105,0.9385,0.932,0.8925,-0.0925,-0.1865,-0.1145
0.1885,0.6875,0.499,-0.4375,-0.155,0.5935,1.0235,0.8135,0.816,0.943,0.9375,0.896,-0.094,-0.183,-0.1145
0.186,0.6875,0.5015,-0.4365,-0.1575,0.5945,1.0245,0.8125,0.8185,0.9465,0.9405,0.8995,-0.093,-0.1795,-0.118
0.18,0.6815,0.5015,-0.4305,-0.161,0.592,1.0295,0.8095,0.817,0.9455,0.942,0.8985,-0.0935,-0.1825,-0.123
0.176,0.6825,0.5065,-0.429,-0.165,0.595,1.0365,0.809,0.8155,0.9445,0.9415,0.897,-0.0955,-0.1855,-0.133
0.1765,0.683,0.5065,-0.4295,-0.165,0.595,1.046,0.813,0.815,0.944,0.9405,0.8965,-0.0945,-0.186,-0.137
0.174,0.6755,0.5015,-0.4245,-0.1635,0.589,1.052,0.8145,0.8135,0.941,0.9385,0.8945,-0.092,-0.184,-0.1335
0.179,0.684,0.5055,-0.431,-0.1635,0.595,1.0495,0.8175,0.8145,0.9435,0.9415,0.897,-0.092,-0.174,-0.1335
0.193,0.7015,0.509,-0.447,-0.158,0.6055,1.0495,0.818,0.8195,0.9505,0.949,0.903,-0.09,-0.174,-0.1325
0.1935,0.703,0.5095,-0.448,-0.158,0.6065,1.0415,0.8135,0.818,0.95,0.949,0.904,-0.0875,-0.175,-0.1275
0.193,0.7065,0.5135,-0.4495,-0.16,0.61,1.038,0.8135,0.8175,0.951,0.9495,0.904,-0.087,-0.1645,-0.126
0.1935,0.7095,0.516,-0.4515,-0.161,0.613,1.037,0.8115,0.8195,0.954,0.9525,0.905,-0.087,-0.157,-0.127
0.187,0.7015,0.515,-0.444,-0.164,0.6085,1.022,0.8015,0.8125,0.949,0.9485,0.901,-0.0835,-0.1635,-0.1225
0.192,0.7115,0.5195,-0.4515,-0.1635,0.616,1.0215,0.7995,0.814,0.9515,0.951,0.903,-0.083,-0.1575,-0.122
0.2045,0.7315,0.527,-0.468,-0.161,0.6295,1.021,0.8015,0.8195,0.9545,0.9565,0.908,-0.0835,-0.144,-0.1215
0.205,0.733,0.528,-0.4685,-0.1615,0.6305,1.0175,0.7975,0.819,0.9545,0.958,0.9085,-0.0815,-0.146,-0.121
0.2115,0.7235,0.512,-0.4675,-0.1505,0.6185,1.0285,0.807,0.829,0.966,0.9675,0.918,-0.083,-0.1535,-0.1255
0.2185,0.7225,0.504,-0.4705,-0.1425,0.6135,1.033,0.8135,0.8355,0.9715,0.972,0.9235,-0.0835,-0.1595,-0.125
0.204,0.7145,0.5105,-0.459,-0.1535,0.613,1.0165,0.8,0.824,0.9615,0.9615,0.914,-0.08,-0.167,-0.1165
0.2005,0.719,0.5185,-0.4595,-0.1595,0.619,1.0155,0.8005,0.8235,0.9625,0.9625,0.9115,-0.082,-0.163,-0.112
0.204,0.7205,0.5165,-0.462,-0.156,0.6185,1.0245,0.8075,0.83,0.968,0.968,0.914,-0.0835,-0.1605,-0.11
0.179,0.681,0.5015,-0.4295,-0.161,0.5915,1.0,0.792,0.8145,0.956,0.953,0.904,-0.076,-0.1765,-0.103
0.187,0.6945,0.507,-0.4405,-0.16,0.601,0.9995,0.7915,0.816,0.9595,0.9565,0.9075,-0.075,-0.176,-0.108
0.1995,0.714,0.5145,-0.4565,-0.1575,0.6145,1.0115,0.7965,0.824,0.9665,0.965,0.9135,-0.075,-0.173,-0.112
0.182,0.6955,0.5135,-0.4385,-0.166,0.6045,0.9985,0.786,0.814,0.959,0.9545,0.9035,-0.0735,-0.176,-0.1135
0.1915,0.707,0.5155,-0.449,-0.162,0.6115,0.9975,0.787,0.8165,0.963,0.959,0.908,-0.072,-0.1685,-0.12
0.1955,0.71,0.5145,-0.4525,-0.1595,0.6125,0.9975,0.787,0.819,0.966,0.9625,0.9135,-0.0675,-0.1695,-0.1185
0.1965,0.7095,0.513,-0.453,-0.158,0.6115,0.9975,0.7865,0.8175,0.965,0.96,0.911,-0.0685,-0.176,-0.115
0.201,0.7115,0.51,-0.456,-0.1545,0.611,1.0,0.7875,0.8195,0.967,0.963,0.912,-0.069,-0.1705,-0.1175
0.196,0.6875,0.4915,-0.4415,-0.1475,0.5895,1.002,0.791,0.8225,0.9705,0.9675,0.9165,-0.067,-0.1835,-0.1165
0.1945,0.6835,0.489,-0.439,-0.147,0.5865,1.0005,0.792,0.822,0.968,0.9665,0.918,-0.0645,-0.189,-0.112
0.1975,0.713,0.515,-0.455,-0.1585,0.6145,0.9915,0.785,0.8145,0.96,0.9575,0.9085,-0.0655,-0.1715,-0.1135
0.2,0.725,0.525,-0.4625,-0.1625,0.6255,0.9905,0.782,0.8115,0.9585,0.9555,0.9045,-0.067,-0.1665,-0.1145
0.203,0.7295,0.526,-0.466,-0.1615,0.628,0.9935,0.783,0.8135,0.9585,0.958,0.907,-0.0675,-0.1615,-0.1135
0.209,0.7335,0.5245,-0.471,-0.158,0.6295,0.992,0.7835,0.812,0.9555,0.9545,0.9065,-0.0665,-0.1695,-0.1105
0.209,0.729,0.52,-0.4685,-0.1555,0.6245,0.9935,0.7855,0.814,0.9565,0.956,0.907,-0.0665,-0.1715,-0.1115
0.2065,0.719,0.5125,-0.4625,-0.1535,0.616,0.9925,0.785,0.815,0.9575,0.9595,0.9075,-0.068,-0.17,-0.112
0.198,0.7055,0.507,-0.4515,-0.1545,0.6065,0.9865,0.7785,0.81,0.9555,0.9545,0.905,-0.067,-0.177,-0.11
0.197,0.7025,0.5055,-0.4495,-0.1545,0.6045,0.9855,0.775,0.8095,0.9545,0.954,0.9065,-0.0665,-0.1805,-0.1085
0.1995,0.7055,0.506,-0.4525,-0.153,0.606,0.987,0.7775,0.811,0.9535,0.9535,0.9065,-0.067,-0.183,-0.1065
0.192,0.7025,0.5105,-0.447,-0.1595,0.607,0.984,0.778,0.8105,0.951,0.951,0.9025,-0.069,-0.1785,-0.1035
0.179,0.686,0.507,-0.4325,-0.164,0.597,0.975,0.7725,0.805,0.9445,0.9465,0.898,-0.0685,-0.1795,-0.0845
0.183,0.6885,0.5055,-0.4355,-0.1615,0.5975,0.972,0.7735,0.808,0.9475,0.9485,0.8995,-0.069,-0.179,-0.07
0.1765,0.6845,0.5075,-0.4305,-0.1655,0.596,0.9725,0.7745,0.8065,0.947,0.9465,0.897,-0.071,-0.178,-0.0705
0.1815,0.6935,0.5125,-0.4375,-0.1655,0.603,0.985,0.7805,0.8105,0.951,0.95,0.901,-0.074,-0.1655,-0.1015
0.236,0.761,0.525,-0.498,-0.1445,0.6435,1.019,0.803,0.835,0.976,0.9745,0.9225,-0.081,-0.144,-0.1415
0.2395,0.761,0.5215,-0.5,-0.141,0.6415,1.0245,0.8075,0.8355,0.9775,0.9735,0.924,-0.0805,-0.151,-0.136
0.1885,0.6925,0.504,-0.4405,-0.1575,0.5985,0.9945,0.7835,0.81,0.952,0.9485,0.9015,-0.073,-0.176,-0.1145
0.18,0.677,0.4975,-0.4285,-0.159,0.5875,0.9815,0.7725,0.8,0.9435,0.9395,0.894,-0.0695,-0.1875,-0.107
0.218,0.711,0.4935,-0.4645,-0.138,0.6025,1.004,0.7945,0.8165,0.9585,0.954,0.909,-0.07,-0.182,-0.1065
0.222,0.716,0.4935,-0.469,-0.1355,0.605,1.0105,0.7995,0.8215,0.9605,0.958,0.913,-0.0715,-0.1755,-0.1085
0.2065,0.702,0.4955,-0.454,-0.1445,0.599,0.997,0.789,0.814,0.955,0.951,0.9075,-0.072,-0.175,-0.106
0.1995,0.6915,0.4915,-0.4455,-0.146,0.5915,0.9935,0.7885,0.812,0.95,0.9465,0.902,-0.0725,-0.1795,-0.0955
0.2,0.692,0.492,-0.4455,-0.146,0.592,0.994,0.7895,0.812,0.949,0.948,0.906,-0.0695,-0.1775,-0.0925
0.2075,0.6915,0.484,-0.449,-0.1385,0.588,0.994,0.7915,0.811,0.948,0.9475,0.9045,-0.069,-0.189,-0.0885
0.216,0.6975,0.4815,-0.4565,-0.1325,0.59,0.9965,0.7935,0.8135,0.949,0.9505,0.9055,-0.0705,-0.195,-0.0945
0.2295,0.7185,0.489,-0.4735,-0.13,0.604,1.005,0.8015,0.821,0.9565,0.9605,0.917,-0.07,-0.187,-0.105
0.224,0.7085,0.484,-0.466,-0.13,0.5965,1.008,0.804,0.819,0.9535,0.9555,0.9085,-0.0725,-0.1955,-0.102
0.218,0.697,0.4785,-0.457,-0.13,0.588,1.0085,0.8055,0.8145,0.9455,0.951,0.909,-0.069,-0.199,-0.103
0.217,0.689,0.472,-0.453,-0.1275,0.5805,1.0095,0.8075,0.807,0.93,0.9315,0.894,-0.077,-0.204,-0.103
0.215,0.686,0.471,-0.4505,-0.128,0.579,1.006,0.8015,0.8085,0.939,0.9355,0.891,-0.078,-0.206,-0.107
0.224,0.6875,0.4635,-0.4555,-0.12,0.576,1.005,0.8005,0.8135,0.948,0.9475,0.9055,-0.0695,-0.206,-0.1065
0.249,0.686,0.4375,-0.4675,-0.094,0.562,1.0005,0.7965,0.8045,0.9345,0.9305,0.8905,-0.076,-0.207,-0.106
0.25,0.6895,0.4395,-0.4695,-0.095,0.5645,0.9995,0.795,0.804,0.9335,0.9315,0.892,-0.0755,-0.1995,-0.106
0.227,0.687,0.46,-0.4565,-0.1165,0.5735,1.008,0.804,0.8105,0.9385,0.9375,0.8985,-0.077,-0.203,-0.103
0.2035,0.6805,0.477,-0.4415,-0.137,0.579,1.0135,0.8055,0.8115,0.942,0.94,0.898,-0.0815,-0.2075,-0.1005
0.1765,0.6745,0.498,-0.4255,-0.161,0.5865,1.021,0.812,0.817,0.947,0.9445,0.9025,-0.082,-0.204,-0.097
0.1805,0.6765,0.496,-0.4285,-0.1575,0.5865,1.0235,0.8165,0.8215,0.949,0.947,0.905,-0.082,-0.204,-0.0975
0.2005,0.677,0.4765,-0.4385,-0.138,0.577,1.022,0.8155,0.8185,0.9455,0.943,0.903,-0.082,-0.205,-0.0995
0.205,0.673,0.4685,-0.439,-0.132,0.5715,1.0235,0.8185,0.818,0.9455,0.9395,0.9015,-0.0835,-0.207,-0.1025
0.2055,0.675,0.4695,-0.44,-0.132,0.5725,1.0255,0.8215,0.8215,0.9475,0.9415,0.9025,-0.083,-0.204,-0.102
0.2055,0.6775,0.472,-0.4415,-0.1335,0.575,1.0225,0.817,0.819,0.9475,0.941,0.901,-0.083,-0.2005,-0.1015
0.2055,0.677,0.4715,-0.441,-0.133,0.5745,1.019,0.8115,0.8165,0.946,0.9385,0.9015,-0.083,-0.207,-0.101
0.199,0.6715,0.4725,-0.435,-0.1365,0.572,1.0205,0.8155,0.8195,0.9455,0.939,0.901,-0.084,-0.2065,-0.1015
0.1915,0.668,0.4765,-0.4295,-0.1425,0.5725,1.022,0.8165,0.82,0.945,0.9375,0.8985,-0.087,-0.2055,-0.1045
0.1965,0.6705,0.4745,-0.4335,-0.139,0.573,1.019,0.809,0.8135,0.9405,0.933,0.8965,-0.0875,-0.209,-0.1025
0.2045,0.67,0.466,-0.437,-0.1305,0.5685,1.0135,0.8005,0.8075,0.935,0.9295,0.8935,-0.0855,-0.211,-0.1005
0.2045,0.6705,0.466,-0.437,-0.131,0.5685,1.0145,0.8005,0.8065,0.933,0.9265,0.891,-0.086,-0.2085,-0.1015
0.1995,0.6695,0.47,-0.4345,-0.135,0.5705,1.018,0.8035,0.8065,0.933,0.9245,0.892,-0.086,-0.204,-0.1015
0.2035,0.67,0.467,-0.4365,-0.132,0.569,1.02,0.809,0.8055,0.9315,0.923,0.8905,-0.0885,-0.207,-0.101
0.2045,0.6735,0.4695,-0.4385,-0.1325,0.5715,1.0225,0.8115,0.8085,0.9325,0.9235,0.8905,-0.09,-0.209,-0.1025
0.206,0.679,0.473,-0.442,-0.134,0.5765,1.0325,0.8175,0.8165,0.9405,0.931,0.8965,-0.0895,-0.2005,-0.106
0.208,0.6835,0.476,-0.4455,-0.134,0.58,1.0355,0.817,0.817,0.942,0.932,0.8985,-0.0905,-0.1935,-0.106
0.211,0.6825,0.4715,-0.446,-0.1305,0.5775,1.0295,0.8135,0.816,0.9425,0.9315,0.897,-0.0925,-0.1965,-0.098
0.2135,0.6835,0.47,-0.4485,-0.1285,0.5775,1.031,0.816,0.8175,0.942,0.929,0.8955,-0.0945,-0.198,-0.0945
0.1995,0.671,0.4715,-0.435,-0.1365,0.572,1.024,0.8055,0.8075,0.93,0.917,0.891,-0.093,-0.2075,-0.099
0.194,0.658,0.4635,-0.426,-0.135,0.561,1.0175,0.802,0.8055,0.93,0.919,0.8855,-0.09,-0.2145,-0.103
0.1945,0.656,0.461,-0.425,-0.1335,0.559,1.0175,0.8025,0.8035,0.929,0.9175,0.884,-0.088,-0.2135,-0.101
0.186,0.648,0.462,-0.4165,-0.138,0.5555,1.0175,0.8005,0.797,0.9205,0.9105,0.881,-0.088,-0.219,-0.102
0.1835,0.646,0.4625,-0.4145,-0.14,0.5545,1.019,0.8025,0.7975,0.9195,0.909,0.879,-0.09,-0.2145,-0.1035
0.19,0.6535,0.4635,-0.4215,-0.1365,0.5585,1.022,0.8025,0.8,0.919,0.91,0.881,-0.093,-0.217,-0.102
0.1925,0.6575,0.465,-0.425,-0.136,0.562,1.022,0.8,0.799,0.9185,0.911,0.882,-0.093,-0.218,-0.1035
0.1935,0.66,0.4665,-0.4265,-0.1365,0.5635,1.0215,0.7975,0.795,0.917,0.91,0.8825,-0.091,-0.213,-0.1015
0.194,0.662,0.468,-0.428,-0.137,0.565,1.024,0.8,0.797,0.916,0.908,0.881,-0.0935,-0.2105,-0.1015
0.193,0.663,0.4695,-0.428,-0.138,0.5665,1.0235,0.802,0.798,0.917,0.9105,0.882,-0.094,-0.207,-0.1025
0.195,0.6635,0.4685,-0.429,-0.1365,0.566,1.0245,0.8035,0.8,0.9195,0.914,0.88,-0.096,-0.2065,-0.103
0.195,0.6635,0.468,-0.429,-0.1365,0.566,1.026,0.806,0.8,0.9175,0.906,0.8795,-0.098,-0.206,-0.1035
0.195,0.665,0.4695,-0.43,-0.137,0.5675,1.0255,0.8055,0.799,0.918,0.908,0.883,-0.0945,-0.2075,-0.1045
0.193,0.6635,0.4705,-0.428,-0.1385,0.5675,1.0235,0.8015,0.8005,0.9165,0.908,0.8815,-0.095,-0.211,-0.104
0.1965,0.669,0.4725,-0.4325,-0.138,0.571,1.028,0.8025,0.802,0.9165,0.907,0.881,-0.0985,-0.212,-0.1045
0.198,0.674,0.476,-0.436,-0.139,0.575,1.034,0.8055,0.8035,0.9165,0.911,0.8805,-0.1015,-0.205,-0.1075
0.1945,0.668,0.473,-0.431,-0.139,0.5705,1.032,0.8045,0.803,0.915,0.9095,0.883,-0.0985,-0.207,-0.1055
0.1945,0.666,0.471,-0.43,-0.1385,0.5685,1.0325,0.8065,0.8035,0.917,0.91,0.881,-0.1,-0.208,-0.107
0.193,0.6685,0.4755,-0.4305,-0.1415,0.5725,1.038,0.81,0.806,0.9185,0.912,0.8805,-0.103,-0.202,-0.11
0.192,0.667,0.4755,-0.4295,-0.1415,0.5715,1.037,0.8105,0.8055,0.9185,0.913,0.884,-0.101,-0.204,-0.109
0.19,0.665,0.475,-0.4275,-0.1425,0.57,1.033,0.8085,0.805,0.918,0.911,0.8815,-0.1015,-0.2,-0.1085
0.188,0.663,0.475,-0.4255,-0.1435,0.569,1.032,0.805,0.8055,0.918,0.9125,0.8815,-0.1015,-0.198,-0.109
0.1905,0.6595,0.469,-0.425,-0.139,0.5645,1.0335,0.8065,0.8085,0.9195,0.9145,0.8835,-0.103,-0.202,-0.108
0.1925,0.663,0.4705,-0.4275,-0.139,0.567,1.037,0.8095,0.81,0.9205,0.9155,0.8845,-0.104,-0.1965,-0.1095
0.192,0.668,0.476,-0.43,-0.142,0.572,1.037,0.81,0.8095,0.919,0.914,0.8825,-0.1065,-0.1955,-0.113
0.195,0.6715,0.4765,-0.4335,-0.141,0.5745,1.043,0.8155,0.8135,0.923,0.9135,0.8845,-0.109,-0.1915,-0.1125
0.1945,0.6735,0.479,-0.4335,-0.142,0.5765,1.044,0.816,0.814,0.926,0.916,0.8865,-0.1085,-0.1805,-0.1125
0.195,0.6745,0.4795,-0.4345,-0.1425,0.5775,1.045,0.817,0.8155,0.927,0.9185,0.8865,-0.11,-0.18,-0.11
0.195,0.672,0.477,-0.4335,-0.1405,0.5745,1.044,0.815,0.813,0.924,0.9155,0.8825,-0.111,-0.1885,-0.106
0.196,0.674,0.478,-0.435,-0.141,0.5765,1.0425,0.812,0.8105,0.92,0.913,0.88,-0.1135,-0.1945,-0.106
0.1945,0.6755,0.481,-0.435,-0.143,0.5785,1.04,0.8095,0.812,0.922,0.918,0.8855,-0.111,-0.1985,-0.109
0.1885,0.668,0.4795,-0.428,-0.1455,0.574,1.028,0.798,0.8025,0.916,0.911,0.8785,-0.109,-0.203,-0.11
0.1835,0.658,0.475,-0.4205,-0.146,0.567,1.0305,0.798,0.7985,0.912,0.907,0.8745,-0.1115,-0.204,-0.114
0.1845,0.6515,0.467,-0.4175,-0.1415,0.5595,1.038,0.805,0.8015,0.9135,0.908,0.877,-0.1095,-0.2075,-0.115
0.191,0.6585,0.468,-0.4245,-0.1385,0.5635,1.0425,0.807,0.804,0.914,0.907,0.877,-0.111,-0.205,-0.1125
0.194,0.6635,0.4695,-0.4285,-0.1375,0.5665,1.0465,0.811,0.807,0.918,0.914,0.882,-0.1125,-0.2035,-0.115
0.193,0.663,0.47,-0.428,-0.1385,0.567,1.0425,0.807,0.801,0.9125,0.898,0.868,-0.121,-0.2095,-0.1115
0.193,0.6635,0.4705,-0.428,-0.139,0.5675,1.032,0.805,0.801,0.912,0.896,0.868,-0.1205,-0.2085,-0.1105
0.196,0.6635,0.467,-0.4295,-0.136,0.5655,1.0325,0.812,0.8105,0.9235,0.9175,0.886,-0.111,-0.206,-0.113
0.1975,0.664,0.4665,-0.4305,-0.1345,0.5655,1.0355,0.8145,0.812,0.9225,0.913,0.883,-0.1155,-0.2065,-0.1145
0.2,0.6665,0.4665,-0.433,-0.1335,0.567,1.041,0.8195,0.8135,0.9215,0.9105,0.883,-0.1185,-0.2065,-0.1165
0.196,0.6675,0.4715,-0.4315,-0.1375,0.5695,1.045,0.821,0.8135,0.922,0.908,0.8815,-0.1205,-0.202,-0.117
0.1995,0.666,0.466,-0.4325,-0.1335,0.5665,1.0475,0.82,0.8105,0.919,0.9045,0.88,-0.1215,-0.205,-0.115
0.197,0.658,0.461,-0.4275,-0.132,0.56,1.0595,0.824,0.809,0.916,0.9045,0.8785,-0.123,-0.2145,-0.117
0.1845,0.643,0.459,-0.4135,-0.1375,0.551,1.0675,0.8245,0.805,0.9115,0.897,0.8725,-0.126,-0.2195,-0.12
0.1855,0.641,0.4555,-0.413,-0.135,0.5485,1.079,0.829,0.804,0.9085,0.8955,0.8725,-0.125,-0.217,-0.118
0.181,0.641,0.46,-0.411,-0.1395,0.551,1.0825,0.8275,0.8015,0.905,0.8925,0.8705,-0.1255,-0.228,-0.117
0.189,0.6385,0.4495,-0.4135,-0.1305,0.5445,1.0745,0.819,0.795,0.9005,0.8855,0.8665,-0.125,-0.242,-0.1145
0.195,0.6455,0.45,-0.42,-0.1275,0.548,1.0785,0.8255,0.7985,0.9025,0.8905,0.871,-0.1235,-0.232,-0.115
0.1925,0.649,0.456,-0.4205,-0.132,0.5525,1.0815,0.8315,0.8025,0.904,0.8945,0.8755,-0.123,-0.222,-0.1175
0.194,0.65,0.4555,-0.422,-0.131,0.553,1.0785,0.8275,0.799,0.903,0.8955,0.8755,-0.122,-0.215,-0.1165
0.2085,0.6505,0.442,-0.429,-0.1165,0.5465,1.0675,0.815,0.7855,0.8935,0.888,0.87,-0.1175,-0.2155,-0.1135
0.233,0.65,0.4165,-0.441,-0.092,0.5335,1.055,0.8,0.768,0.879,0.876,0.863,-0.1105,-0.2145,-0.112
0.1905,0.6525,0.462,-0.421,-0.136,0.5575,1.0665,0.811,0.779,0.8925,0.894,0.881,-0.1055,-0.2095,-0.1095
0.159,0.6515,0.4925,-0.405,-0.167,0.5725,1.065,0.8115,0.782,0.898,0.902,0.892,-0.0975,-0.2145,-0.1015
0.18,0.6525,0.472,-0.416,-0.146,0.5625,1.049,0.796,0.7695,0.887,0.8945,0.8845,-0.092,-0.2145,-0.098
0.189,0.655,0.4655,-0.4215,-0.1385,0.5605,1.045,0.7935,0.769,0.8885,0.8975,0.8855,-0.089,-0.21,-0.095
0.1925,0.657,0.4645,-0.4245,-0.136,0.561,1.0405,0.7905,0.765,0.8925,0.9025,0.8895,-0.082,-0.205,-0.094
0.186,0.6545,0.468,-0.42,-0.141,0.5615,1.041,0.791,0.7695,0.901,0.9125,0.8925,-0.082,-0.1945,-0.0955
0.186,0.654,0.468,-0.4195,-0.141,0.561,1.0425,0.7915,0.777,0.909,0.92,0.893,-0.0835,-0.1925,-0.0945
0.18,0.6555,0.4755,-0.4175,-0.1475,0.5655,1.0395,0.7905,0.786,0.9215,0.932,0.894,-0.0835,-0.2045,-0.1025
0.176,0.6615,0.486,-0.4185,-0.155,0.574,1.042,0.7915,0.7995,0.942,0.9525,0.901,-0.0845,-0.1965,-0.118
0.1885,0.6875,0.4985,-0.438,-0.155,0.5935,1.045,0.79,0.81,0.964,0.979,0.916,-0.078,-0.1835,-0.128
0.185,0.696,0.511,-0.4405,-0.163,0.604,1.0365,0.7765,0.8055,0.971,0.9945,0.922,-0.0665,-0.184,-0.132
0.174,0.692,0.518,-0.4325,-0.172,0.605,1.027,0.7635,0.792,0.9695,1.002,0.928,-0.0515,-0.1725,-0.1335
0.177,0.697,0.52,-0.4365,-0.1715,0.6085,1.02,0.759,0.788,0.975,1.0155,0.9385,-0.039,-0.169,-0.1315
0.17,0.697,0.527,-0.4335,-0.1785,0.6125,1.002,0.74,0.773,0.9655,1.0135,0.9345,-0.0295,-0.1645,-0.1275
0.1775,0.7135,0.5355,-0.4455,-0.179,0.625,0.994,0.731,0.7635,0.9615,1.0195,0.9425,-0.015,-0.1565,-0.1235
0.1695,0.706,0.5365,-0.438,-0.1835,0.6215,0.9805,0.717,0.734,0.936,1.005,0.9365,-0.0015,-0.1615,-0.1125
0.1665,0.707,0.5405,-0.4365,-0.187,0.6235,0.963,0.699,0.701,0.904,0.985,0.9275,0.013,-0.16,-0.0965
0.1625,0.704,0.5415,-0.433,-0.1895,0.623,0.9525,0.6895,0.681,0.885,0.9755,0.931,0.031,-0.16,-0.0855
0.0905,0.631,0.5405,-0.3605,-0.225,0.586,0.912,0.6525,0.633,0.839,0.942,0.9115,0.053,-0.1605,-0.073
0.0245,0.5495,0.5255,-0.2865,-0.2505,0.5375,0.8705,0.6135,0.5715,0.7775,0.899,0.8895,0.082,-0.1675,-0.047
0.1065,0.6265,0.5195,-0.3665,-0.2065,0.5735,0.865,0.603,0.5115,0.7195,0.8705,0.903,0.123,-0.175,-0.003
0.265,0.7925,0.5275,-0.5285,-0.131,0.6605,0.879,0.6105,0.471,0.681,0.867,0.9455,0.163,-0.17,0.0435
0.2345,0.7655,0.531,-0.5,-0.148,0.6485,0.8335,0.563,0.3805,0.589,0.8095,0.94,0.2055,-0.165,0.0845
0.1935,0.7085,0.515,-0.451,-0.1605,0.612,0.7985,0.52,0.292,0.495,0.7465,0.931,0.2395,-0.17,0.1215
0.203,0.689,0.486,-0.446,-0.141,0.5875,0.779,0.491,0.214,0.415,0.7,0.9435,0.284,-0.18,0.1675
0.202,0.6935,0.4915,-0.4475,-0.145,0.593,0.7165,0.416,0.0875,0.3,0.632,0.949,0.352,-0.1715,0.2195
0.2525,0.752,0.4995,-0.502,-0.1235,0.626,0.6865,0.361,-0.037,0.1765,0.558,0.9585,0.4115,-0.1565,0.275
0.259,0.758,0.4995,-0.5085,-0.12,0.629,0.6265,0.2795,-0.218,-0.014,0.4235,0.934,0.477,-0.148,0.3645
0.246,0.7475,0.5015,-0.4965,-0.128,0.625,0.531,0.163,-0.437,-0.234,0.2615,0.899,0.5535,-0.1445,0.4685
0.2455,0.742,0.496,-0.4935,-0.125,0.6195,0.454,0.0575,-0.6425,-0.4445,0.106,0.8665,0.623,-0.154,0.562
0.265,0.7575,0.493,-0.511,-0.114,0.6255,0.3835,-0.0365,-0.816,-0.617,-0.0225,0.837,0.6845,-0.154,0.6475
0.289,0.7695,0.4805,-0.529,-0.096,0.6255,0.2985,-0.137,-0.9765,-0.7615,-0.117,0.847,0.784,-0.1395,0.7415
0.282,0.748,0.466,-0.515,-0.092,0.607,0.199,-0.2495,-1.153,-0.9305,-0.239,0.8325,0.8725,-0.148,0.837
0.2785,0.7255,0.447,-0.5015,-0.0845,0.5865,0.132,-0.3355,-1.305,-1.09,-0.3665,0.7965,0.924,-0.17,0.9145
0.301,0.7185,0.418,-0.5095,-0.0585,0.5685,0.086,-0.4015,-1.4405,-1.2415,-0.489,0.779,0.9765,-0.185,0.9935
0.321,0.7115,0.3905,-0.516,-0.0345,0.551,0.025,-0.4815,-1.587,-1.4035,-0.622,0.7545,1.03,-0.199,1.081
0.328,0.7085,0.3805,-0.518,-0.0265,0.5445,-0.0515,-0.5785,-1.7465,-1.5675,-0.7545,0.7215,1.0865,-0.187,1.167
0.341,0.7325,0.392,-0.5365,-0.0255,0.5625,-0.113,-0.6655,-1.8755,-1.692,-0.852,0.709,1.135,-0.1615,1.2315
0.3715,0.7755,0.4035,-0.573,-0.016,0.5895,-0.168,-0.743,-1.975,-1.78,-0.9105,0.7275,1.1955,-0.1395,1.285
0.3845,0.801,0.416,-0.5925,-0.0155,0.6085,-0.248,-0.83,-2.06,-1.8485,-0.9515,0.751,1.264,-0.114,1.3355
0.407,0.837,0.4295,-0.622,-0.0115,0.6335,-0.3155,-0.904,-2.1195,-1.8895,-0.9715,0.7805,1.3235,-0.0855,1.3795
0.439,0.889,0.45,-0.6635,-0.0055,0.6695,-0.37,-0.9645,-2.168,-1.925,-0.99,0.803,1.3705,-0.0485,1.42
0.4665,0.9225,0.4565,-0.6945,0.005,0.6895,-0.4175,-1.009,-2.201,-1.9455,-0.996,0.8375,1.4205,-0.0265,1.459
0.504,0.933,0.429,-0.7185,0.0375,0.6815,-0.461,-1.044,-2.219,-1.9535,-0.985,0.8995,1.4865,-0.025,1.502
0.527,0.921,0.3945,-0.7235,0.066,0.658,-0.508,-1.0785,-2.231,-1.961,-0.9795,0.9565,1.5475,-0.0315,1.546
0.583,0.947,0.3645,-0.7645,0.1095,0.656,-0.5345,-1.103,-2.2545,-1.9835,-0.994,1.0055,1.5965,-0.029,1.594
0.639,0.993,0.3545,-0.8155,0.142,0.674,-0.5585,-1.136,-2.2655,-1.9795,-0.976,1.0795,1.6615,-0.0075,1.62
0.6865,1.019,0.333,-0.8525,0.1765,0.676,-0.5865,-1.159,-2.2475,-1.9505,-0.9355,1.158,1.7255,0.0105,1.6235
0.756,1.049,0.293,-0.9025,0.2315,0.671,-0.614,-1.1665,-2.228,-1.9315,-0.916,1.224,1.7715,0.0205,1.641
0.799,1.0555,0.2565,-0.927,0.271,0.6565,-0.647,-1.1815,-2.2065,-1.9045,-0.8905,1.293,1.825,0.024,1.6665
0.823,1.063,0.24,-0.9425,0.2915,0.6515,-0.675,-1.204,-2.185,-1.879,-0.8715,1.341,1.865,0.0425,1.6815
0.858,1.116,0.2585,-0.987,0.2995,0.6875,-0.686,-1.21,-2.149,-1.8365,-0.8525,1.361,1.8675,0.0835,1.6815
0.9015,1.171,0.2695,-1.036,0.316,0.7205,-0.6985,-1.2135,-2.125,-1.816,-0.8655,1.345,1.8465,0.1175,1.69
0.9265,1.187,0.2605,-1.0565,0.333,0.724,-0.7145,-1.2235,-2.1195,-1.8275,-0.9145,1.307,1.8175,0.136,1.7085
0.945,1.1895,0.2445,-1.067,0.35,0.7175,-0.705,-1.212,-2.0925,-1.8185,-0.9545,1.2605,1.7705,0.1385,1.7075
0.9535,1.178,0.2245,-1.0655,0.3645,0.7015,-0.6665,-1.1765,-2.036,-1.786,-0.9815,1.1965,1.6925,0.1315,1.6865
0.9575,1.1515,0.194,-1.054,0.3815,0.673,-0.625,-1.128,-1.9655,-1.744,-1.0065,1.123,1.6005,0.1115,1.663
0.972,1.1515,0.179,-1.0615,0.3965,0.6655,-0.597,-1.087,-1.902,-1.707,-1.035,1.05,1.5115,0.1135,1.643
0.983,1.141,0.1585,-1.0615,0.412,0.65,-0.568,-1.039,-1.829,-1.663,-1.058,0.979,1.4215,0.1015,1.623
0.9815,1.071,0.0895,-1.0255,0.446,0.5805,-0.517,-0.964,-1.7405,-1.617,-1.0935,0.8795,1.3005,0.04,1.5955
0.966,0.9575,-0.0085,-0.9615,0.4875,0.4745,-0.4455,-0.8685,-1.635,-1.5595,-1.121,0.78,1.173,-0.041,1.564
0.951,0.874,-0.0775,-0.9125,0.5145,0.399,-0.3695,-0.7695,-1.5125,-1.472,-1.1075,0.6955,1.053,-0.112,1.5155
0.938,0.7795,-0.159,-0.8585,0.5485,0.3105,-0.2735,-0.652,-1.3645,-1.3515,-1.049,0.6285,0.9355,-0.1835,1.4505
0.926,0.6275,-0.2985,-0.7765,0.612,0.165,-0.1705,-0.522,-1.215,-1.2345,-0.99,0.568,0.823,-0.303,1.402
0.8965,0.5045,-0.3925,-0.7005,0.6445,0.056,-0.083,-0.421,-1.1115,-1.1555,-0.9645,0.4735,0.7035,-0.403,1.3585
0.8785,0.3795,-0.499,-0.6285,0.6885,-0.0595,-0.0005,-0.3175,-1.0015,-1.0675,-0.912,0.4405,0.63,-0.5035,1.322
0.873,0.2405,-0.6325,-0.5565,0.753,-0.196,0.0795,-0.212,-0.879,-0.963,-0.8365,0.45,0.584,-0.6155,1.292
0.8645,0.121,-0.743,-0.4925,0.8035,-0.311,0.1505,-0.1265,-0.778,-0.874,-0.776,0.441,0.533,-0.709,1.2635
0.856,0.005,-0.851,-0.43,0.8535,-0.4225,0.2165,-0.044,-0.681,-0.7915,-0.7185,0.4395,0.4895,-0.8095,1.239
0.8395,-0.08,-0.92,-0.3795,0.8795,-0.4995,0.271,0.0215,-0.5985,-0.72,-0.671,0.426,0.4395,-0.876,1.208
0.83,-0.1375,-0.9675,-0.346,0.8985,-0.552,0.311,0.071,-0.528,-0.657,-0.6265,0.4195,0.4,-0.921,1.182
0.8225,-0.191,-1.0135,-0.3155,0.918,-0.602,0.354,0.1225,-0.4575,-0.59,-0.572,0.431,0.3735,-0.9665,1.1555
0.8085,-0.2205,-1.029,-0.2935,0.9185,-0.6245,0.3965,0.1715,-0.3895,-0.5195,-0.513,0.4425,0.3435,-0.9915,1.118
0.787,-0.238,-1.025,-0.274,0.906,-0.6315,0.434,0.208,-0.3335,-0.461,-0.465,0.445,0.3105,-1.003,1.0805
0.766,-0.25,-1.016,-0.2575,0.891,-0.633,0.472,0.2435,-0.2835,-0.409,-0.42,0.4515,0.282,-1.009,1.0445
0.7435,-0.252,-0.9955,-0.2455,0.8695,-0.6235,0.5085,0.284,-0.227,-0.35,-0.3695,0.459,0.2525,-1.003,1.003
0.732,-0.257,-0.989,-0.2375,0.8605,-0.6225,0.5435,0.322,-0.172,-0.296,-0.322,0.462,0.222,-1.0015,0.96
0.713,-0.2525,-0.966,-0.23,0.8395,-0.609,0.577,0.359,-0.1155,-0.2385,-0.2735,0.468,0.192,-1.0015,0.9145
0.691,-0.2355,-0.926,-0.2275,0.8085,-0.5805,0.611,0.397,-0.057,-0.1755,-0.2165,0.4815,0.166,-0.989,0.867
0.68,-0.198,-0.878,-0.2405,0.779,-0.5375,0.6445,0.434,0.0085,-0.103,-0.146,0.51,0.1485,-0.9595,0.813
0.664,-0.164,-0.828,-0.2495,0.746,-0.496,0.67,0.466,0.06,-0.0455,-0.091,0.522,0.1285,-0.9385,0.768
0.6405,-0.1325,-0.773,-0.2535,0.7065,-0.4525,0.691,0.489,0.0985,0.002,-0.0455,0.533,0.1095,-0.9135,0.727
0.6025,-0.09,-0.6925,-0.256,0.6475,-0.391,0.714,0.5085,0.151,0.068,0.022,0.5525,0.0915,-0.87,0.672
0.5695,-0.022,-0.592,-0.2735,0.581,-0.307,0.739,0.5335,0.222,0.159,0.114,0.581,0.07,-0.8085,0.6035
0.527,0.0735,-0.4535,-0.3,0.4905,-0.19,0.772,0.562,0.304,0.2685,0.225,0.6325,0.053,-0.713,0.521
0.4725,0.1545,-0.318,-0.3135,0.395,-0.0815,0.807,0.5885,0.3765,0.363,0.3235,0.6675,0.0305,-0.6185,0.4425
0.4175,0.236,-0.1815,-0.327,0.2995,0.0275,0.838,0.615,0.4485,0.458,0.421,0.7,0.0065,-0.529,0.361
0.366,0.3045,-0.0615,-0.335,0.214,0.1215,0.8735,0.651,0.5205,0.546,0.5135,0.7215,-0.0225,-0.4675,0.2835
0.3285,0.3435,0.015,-0.336,0.157,0.1795,0.9085,0.6865,0.573,0.6035,0.566,0.724,-0.0535,-0.4365,0.226
0.301,0.371,0.07,-0.336,0.1155,0.221,0.932,0.711,0.611,0.648,0.6075,0.7325,-0.073,-0.4095,0.1825
0.281,0.4,0.1195,-0.34,0.081,0.26,0.9535,0.733,0.646,0.6885,0.651,0.739,-0.0905,-0.3875,0.144
0.2525,0.42,0.167,-0.336,0.043,0.2935,0.9715,0.748,0.675,0.7255,0.6845,0.745,-0.1055,-0.368,0.106
0.2305,0.428,0.1975,-0.329,0.0165,0.313,0.987,0.7645,0.7,0.7555,0.7135,0.75,-0.117,-0.3635,0.077
0.217,0.4435,0.2265,-0.33,-0.0045,0.335,1.0055,0.785,0.726,0.7835,0.7385,0.754,-0.1315,-0.356,0.047
0.213,0.4565,0.2435,-0.3345,-0.0155,0.3505,1.013,0.79,0.7405,0.801,0.758,0.7565,-0.1395,-0.35,0.024
0.2155,0.4745,0.259,-0.3445,-0.0215,0.367,1.0185,0.7955,0.7575,0.8205,0.777,0.7665,-0.141,-0.3425,0.0065
0.2075,0.491,0.2835,-0.349,-0.038,0.3875,1.0265,0.806,0.78,0.8445,0.801,0.7805,-0.1445,-0.3275,-0.0145
0.2025,0.5045,0.302,-0.353,-0.05,0.4035,1.033,0.8165,0.797,0.8645,0.821,0.79,-0.148,-0.3165,-0.0335
0.201,0.521,0.32,-0.3605,-0.0595,0.4205,1.042,0.8285,0.8155,0.884,0.8395,0.798,-0.152,-0.3075,-0.051
0.1935,0.534,0.34,-0.3635,-0.0735,0.4375,1.054,0.8415,0.8335,0.903,0.8605,0.8085,-0.155,-0.301,-0.069
0.1845,0.5485,0.364,-0.366,-0.09,0.4565,1.068,0.8555,0.8525,0.924,0.8795,0.8205,-0.158,-0.2815,-0.089
0.172,0.5425,0.3705,-0.3575,-0.099,0.457,1.0675,0.8525,0.8575,0.931,0.8855,0.817,-0.1625,-0.2825,-0.098
0.169,0.5415,0.3725,-0.355,-0.102,0.4575,1.062,0.848,0.858,0.9355,0.8895,0.814,-0.1635,-0.288,-0.1055
0.174,0.5555,0.3815,-0.3645,-0.1035,0.4685,1.065,0.852,0.8715,0.9515,0.9055,0.8245,-0.164,-0.2775,-0.1165
0.1755,0.5675,0.392,-0.3715,-0.108,0.48,1.0785,0.8645,0.886,0.968,0.921,0.833,-0.168,-0.2655,-0.1265
0.18,0.5845,0.4045,-0.382,-0.112,0.4945,1.0925,0.8775,0.8985,0.981,0.933,0.8385,-0.1735,-0.256,-0.1385
0.175,0.5785,0.4035,-0.377,-0.114,0.4915,1.088,0.877,0.9005,0.9835,0.9345,0.8355,-0.175,-0.2685,-0.1395
0.1705,0.5795,0.409,-0.375,-0.119,0.4945,1.0905,0.882,0.905,0.989,0.94,0.836,-0.1765,-0.267,-0.142
0.171,0.5905,0.419,-0.3805,-0.124,0.505,1.0995,0.8895,0.9145,0.999,0.949,0.841,-0.1805,-0.2505,-0.151
0.168,0.595,0.4265,-0.3815,-0.129,0.511,1.1025,0.891,0.9195,1.005,0.954,0.8405,-0.1855,-0.249,-0.159
0.168,0.598,0.43,-0.383,-0.131,0.514,1.104,0.8935,0.925,1.0095,0.959,0.8425,-0.187,-0.252,-0.164
0.1675,0.5965,0.429,-0.3815,-0.131,0.513,1.103,0.8955,0.9275,1.0125,0.9615,0.843,-0.187,-0.253,-0.165
0.169,0.6035,0.434,-0.386,-0.1325,0.5185,1.106,0.9015,0.934,1.02,0.968,0.845,-0.191,-0.2485,-0.1685
0.1645,0.601,0.4365,-0.3825,-0.136,0.519,1.1085,0.9065,0.938,1.025,0.9715,0.8465,-0.192,-0.2435,-0.171
0.162,0.599,0.437,-0.3805,-0.1375,0.5185,1.1065,0.9065,0.9395,1.025,0.9725,0.8445,-0.192,-0.2475,-0.17
0.1615,0.598,0.436,-0.3795,-0.1375,0.5175,1.1055,0.905,0.9425,1.0285,0.9765,0.8445,-0.193,-0.2495,-0.171
0.1525,0.591,0.4385,-0.3715,-0.143,0.515,1.105,0.9025,0.942,1.0285,0.976,0.8425,-0.1945,-0.254,-0.1745
0.147,0.592,0.4445,-0.3695,-0.1485,0.5185,1.107,0.9055,0.944,1.029,0.9745,0.839,-0.201,-0.253,-0.1785
0.1465,0.596,0.449,-0.371,-0.151,0.523,1.115,0.9115,0.95,1.0365,0.981,0.843,-0.204,-0.2435,-0.1855
0.1465,0.602,0.455,-0.374,-0.154,0.5285,1.1225,0.9195,0.9565,1.0415,0.9865,0.8445,-0.208,-0.2395,-0.192
0.15,0.6075,0.457,-0.3785,-0.1535,0.5325,1.1225,0.9205,0.957,1.046,0.9895,0.845,-0.208,-0.235,-0.1925
0.152,0.609,0.457,-0.38,-0.1525,0.533,1.122,0.92,0.9575,1.045,0.991,0.8435,-0.209,-0.242,-0.192
0.148,0.6105,0.462,-0.379,-0.157,0.5365,1.1245,0.92,0.959,1.047,0.993,0.843,-0.2115,-0.239,-0.195
0.151,0.6115,0.4605,-0.381,-0.155,0.5365,1.1285,0.9235,0.959,1.046,0.993,0.8475,-0.21,-0.236,-0.196
0.1485,0.6085,0.4595,-0.3785,-0.1555,0.5345,1.134,0.9325,0.9625,1.044,0.9835,0.8375,-0.2215,-0.237,-0.198
0.1445,0.6115,0.467,-0.3775,-0.161,0.5395,1.136,0.9305,0.969,1.0625,0.9995,0.845,-0.217,-0.231,-0.2035
0.1485,0.6145,0.466,-0.3815,-0.1585,0.5405,1.1375,0.9325,0.974,1.0675,1.008,0.8515,-0.2145,-0.231,-0.2055
0.1475,0.6125,0.4645,-0.38,-0.1585,0.539,1.14,0.9365,0.9755,1.0655,1.001,0.8445,-0.2225,-0.231,-0.2075
0.1445,0.608,0.4635,-0.376,-0.1595,0.536,1.1435,0.9385,0.978,1.0695,1.005,0.8465,-0.222,-0.238,-0.2095
0.1395,0.6045,0.465,-0.3715,-0.163,0.535,1.1455,0.9415,0.977,1.068,1.002,0.8435,-0.2255,-0.243,-0.21
0.1365,0.6025,0.466,-0.369,-0.165,0.5345,1.143,0.9385,0.976,1.067,1.0025,0.841,-0.2275,-0.253,-0.2125
0.1365,0.603,0.4665,-0.3695,-0.165,0.535,1.144,0.9405,0.9795,1.07,1.004,0.8395,-0.2305,-0.2535,-0.2135
0.1385,0.6055,0.467,-0.3715,-0.164,0.5365,1.146,0.9455,0.9825,1.074,1.007,0.8415,-0.232,-0.245,-0.2115
0.137,0.6045,0.4675,-0.3705,-0.1655,0.536,1.1445,0.9445,0.984,1.074,1.0065,0.84,-0.2335,-0.24,-0.2085
0.131,0.604,0.473,-0.367,-0.171,0.5385,1.1415,0.9385,0.9815,1.073,1.0055,0.838,-0.233,-0.2355,-0.208
0.131,0.6075,0.477,-0.369,-0.173,0.5425,1.1455,0.942,0.984,1.074,1.0075,0.8385,-0.2345,-0.234,-0.211
0.1275,0.6095,0.482,-0.368,-0.177,0.546,1.1455,0.9455,0.985,1.0735,1.0045,0.8355,-0.2385,-0.2305,-0.2155
0.1315,0.6125,0.481,-0.3715,-0.175,0.547,1.147,0.946,0.987,1.0755,1.006,0.836,-0.2395,-0.2315,-0.2235
0.128,0.6095,0.482,-0.3685,-0.177,0.546,1.15,0.9475,0.989,1.0785,1.007,0.8345,-0.2425,-0.2295,-0.229
0.1185,0.601,0.4825,-0.3595,-0.182,0.542,1.1515,0.95,0.9905,1.078,1.0075,0.8325,-0.2455,-0.226,-0.232
0.1215,0.603,0.4815,-0.362,-0.18,0.5425,1.1555,0.9495,0.9935,1.081,1.009,0.8325,-0.2495,-0.2305,-0.238
0.139,0.62,0.4805,-0.3795,-0.171,0.5505,1.166,0.9545,1.0005,1.087,1.0155,0.838,-0.2525,-0.2345,-0.241
0.149,0.6305,0.4815,-0.3895,-0.1665,0.5565,1.173,0.9615,1.0075,1.0915,1.02,0.8405,-0.256,-0.233,-0.244
0.1435,0.625,0.4815,-0.384,-0.169,0.554,1.173,0.959,1.007,1.093,1.0175,0.8375,-0.2585,-0.2335,-0.2445
0.143,0.626,0.4835,-0.384,-0.1705,0.555,1.177,0.9615,1.01,1.0915,1.0185,0.837,-0.26,-0.2275,-0.245
0.1405,0.626,0.4855,-0.383,-0.1725,0.556,1.181,0.966,1.0135,1.095,1.0185,0.836,-0.263,-0.2325,-0.2465
0.142,0.6225,0.4805,-0.382,-0.169,0.552,1.185,0.9675,1.012,1.0955,1.016,0.832,-0.267,-0.238,-0.249
0.128,0.6165,0.489,-0.372,-0.1805,0.553,1.182,0.966,1.0105,1.0945,1.015,0.828,-0.2695,-0.235,-0.251
0.154,0.6145,0.4605,-0.384,-0.153,0.5375,1.1755,0.961,1.006,1.0905,1.009,0.821,-0.2705,-0.237,-0.2525
0.165,0.612,0.447,-0.388,-0.141,0.5295,1.1765,0.96,1.0035,1.087,1.0045,0.816,-0.2725,-0.2285,-0.2555
0.1015,0.607,0.5055,-0.354,-0.202,0.5565,1.2015,0.983,1.028,1.112,1.0265,0.8345,-0.277,-0.2275,-0.257
0.093,0.609,0.5155,-0.3505,-0.2115,0.5625,1.212,0.9925,1.038,1.1215,1.035,0.8395,-0.2815,-0.233,-0.251
0.1105,0.603,0.492,-0.3565,-0.191,0.548,1.202,0.9855,1.031,1.1135,1.026,0.8295,-0.2845,-0.2325,-0.241
0.108,0.597,0.489,-0.352,-0.1905,0.5435,1.19,0.9775,1.0305,1.1135,1.0265,0.829,-0.284,-0.235,-0.2475
0.1215,0.6115,0.49,-0.366,-0.1845,0.551,1.19,0.978,1.034,1.119,1.0305,0.831,-0.285,-0.2355,-0.2635
0.1245,0.616,0.491,-0.37,-0.1835,0.554,1.202,0.9895,1.042,1.1265,1.0355,0.8345,-0.2855,-0.2395,-0.272
0.1035,0.591,0.4875,-0.347,-0.192,0.5395,1.191,0.981,1.0335,1.118,1.0275,0.823,-0.2865,-0.239,-0.276
0.094,0.5805,0.487,-0.337,-0.1965,0.534,1.1835,0.978,1.031,1.1155,1.025,0.818,-0.289,-0.2385,-0.277
0.0935,0.585,0.492,-0.339,-0.199,0.5385,1.185,0.982,1.0385,1.12,1.0285,0.821,-0.2915,-0.242,-0.2755
0.0975,0.595,0.4975,-0.346,-0.2,0.5465,1.1895,0.9875,1.0465,1.1275,1.0345,0.8235,-0.296,-0.2305,-0.2785
0.1075,0.6115,0.504,-0.359,-0.198,0.558,1.203,0.997,1.0565,1.1385,1.045,0.83,-0.299,-0.2185,-0.2845
0.096,0.605,0.509,-0.35,-0.2065,0.5575,1.197,0.9915,1.054,1.1365,1.0415,0.8265,-0.2985,-0.2165,-0.285
0.084,0.5925,0.5085,-0.338,-0.212,0.5505,1.195,0.99,1.05,1.132,1.0375,0.8205,-0.2975,-0.217,-0.2835
0.0815,0.5905,0.5085,-0.3355,-0.2135,0.5495,1.2095,0.9945,1.0545,1.1365,1.041,0.821,-0.3015,-0.2175,-0.2855
0.0815,0.5945,0.513,-0.3375,-0.2155,0.554,1.22,0.9995,1.06,1.1415,1.046,0.823,-0.3045,-0.213,-0.2925
0.0785,0.5935,0.515,-0.336,-0.218,0.5545,1.226,1.0015,1.0595,1.1415,1.0475,0.821,-0.3055,-0.2185,-0.2955
0.09,0.602,0.512,-0.346,-0.211,0.5575,1.23,1.0055,1.065,1.148,1.051,0.8215,-0.309,-0.224,-0.3005
0.1285,0.646,0.518,-0.387,-0.195,0.5825,1.2485,1.0225,1.0845,1.169,1.0705,0.8385,-0.315,-0.2145,-0.317
0.1255,0.6475,0.5225,-0.386,-0.1985,0.5855,1.2485,1.022,1.0895,1.1765,1.076,0.8435,-0.3165,-0.2155,-0.319
0.102,0.618,0.516,-0.3595,-0.207,0.567,1.2325,1.013,1.0795,1.168,1.066,0.8305,-0.316,-0.2245,-0.308
0.1035,0.6175,0.514,-0.36,-0.2055,0.566,1.236,1.018,1.081,1.1685,1.0665,0.827,-0.318,-0.233,-0.3065
0.0995,0.614,0.514,-0.3565,-0.2075,0.5645,1.2335,1.018,1.083,1.172,1.0685,0.827,-0.315,-0.2345,-0.307
0.098,0.6065,0.5085,-0.352,-0.205,0.558,1.2315,1.0155,1.084,1.173,1.067,0.826,-0.3145,-0.233,-0.305
0.095,0.606,0.5105,-0.3505,-0.208,0.5585,1.2335,1.017,1.087,1.1725,1.0675,0.8235,-0.316,-0.2305,-0.306
0.0875,0.603,0.5155,-0.345,-0.214,0.5595,1.236,1.018,1.0865,1.1725,1.068,0.8205,-0.3165,-0.2235,-0.3085
0.082,0.597,0.515,-0.339,-0.2165,0.556,1.242,1.0195,1.0865,1.1725,1.0675,0.8185,-0.319,-0.224,-0.312
0.083,0.599,0.5155,-0.3405,-0.2165,0.5575,1.241,1.021,1.0905,1.176,1.07,0.8175,-0.3205,-0.226,-0.314
0.083,0.597,0.514,-0.34,-0.2155,0.556,1.2365,1.0195,1.0925,1.179,1.0715,0.816,-0.322,-0.2275,-0.315
0.0775,0.592,0.5145,-0.3345,-0.2185,0.5535,1.2305,1.019,1.091,1.177,1.0715,0.8135,-0.3215,-0.225,-0.316
0.0815,0.594,0.513,-0.3375,-0.216,0.5535,1.2315,1.0205,1.0935,1.1805,1.0725,0.8125,-0.322,-0.227,-0.3145
0.0845,0.5995,0.5155,-0.3415,-0.2155,0.5575,1.2315,1.021,1.0965,1.184,1.075,0.814,-0.3215,-0.2315,-0.313
0.077,0.601,0.524,-0.339,-0.2235,0.563,1.2295,1.018,1.0965,1.185,1.0735,0.8105,-0.3245,-0.23,-0.315
0.071,0.5995,0.5285,-0.335,-0.2285,0.5645,1.229,1.017,1.099,1.189,1.077,0.808,-0.326,-0.2295,-0.3195
0.066,0.597,0.531,-0.331,-0.2325,0.5645,1.229,1.018,1.0985,1.1875,1.071,0.801,-0.332,-0.223,-0.319
0.066,0.597,0.5315,-0.331,-0.2325,0.5645,1.231,1.0195,1.101,1.1875,1.063,0.7915,-0.3415,-0.22,-0.319
0.069,0.5995,0.531,-0.334,-0.231,0.5655,1.236,1.025,1.1135,1.203,1.0885,0.8105,-0.3295,-0.219,-0.3235
0.06,0.593,0.5335,-0.326,-0.237,0.5635,1.2325,1.0245,1.117,1.208,1.0945,0.812,-0.329,-0.2195,-0.32
0.077,0.614,0.537,-0.3455,-0.23,0.576,1.2345,1.0295,1.127,1.218,1.097,0.8115,-0.338,-0.2145,-0.3235
0.0935,0.6175,0.5245,-0.355,-0.2155,0.5715,1.2465,1.0435,1.146,1.2375,1.1155,0.827,-0.3405,-0.2245,-0.3305
0.0815,0.597,0.515,-0.339,-0.217,0.556,1.242,1.045,1.149,1.2385,1.114,0.818,-0.3465,-0.2315,-0.327
0.08,0.6065,0.5265,-0.343,-0.223,0.5665,1.244,1.0475,1.152,1.2415,1.1155,0.8135,-0.351,-0.2175,-0.3315
0.0755,0.602,0.5265,-0.3385,-0.2255,0.5645,1.25,1.0535,1.1585,1.249,1.119,0.8145,-0.355,-0.221,-0.3395
0.076,0.5975,0.5215,-0.3365,-0.2225,0.5595,1.25,1.053,1.1635,1.254,1.1215,0.815,-0.3555,-0.227,-0.341
0.0685,0.5925,0.5235,-0.33,-0.2275,0.5585,1.251,1.0525,1.1655,1.2565,1.1235,0.8105,-0.3585,-0.2295,-0.3465
0.048,0.5695,0.522,-0.3085,-0.237,0.546,1.262,1.055,1.1625,1.2505,1.1155,0.799,-0.36,-0.2365,-0.357
0.037,0.5595,0.523,-0.298,-0.243,0.5415,1.2755,1.0565,1.163,1.2485,1.112,0.793,-0.364,-0.237,-0.3685
0.0455,0.574,0.529,-0.3095,-0.242,0.5515,1.2825,1.0645,1.177,1.261,1.121,0.7965,-0.373,-0.2285,-0.373
0.053,0.5905,0.5375,-0.3215,-0.242,0.564,1.2825,1.071,1.1915,1.2765,1.133,0.805,-0.379,-0.2245,-0.368
0.055,0.6,0.545,-0.3275,-0.245,0.573,1.277,1.0705,1.201,1.2885,1.142,0.807,-0.385,-0.2185,-0.3635
0.0635,0.612,0.549,-0.3375,-0.243,0.5805,1.2815,1.078,1.211,1.298,1.1515,0.812,-0.3875,-0.2055,-0.365
0.0455,0.598,0.5525,-0.3215,-0.2535,0.5755,1.2775,1.077,1.211,1.2965,1.15,0.8065,-0.388,-0.2105,-0.3805
0.0375,0.5955,0.558,-0.316,-0.26,0.577,1.274,1.0755,1.213,1.297,1.1485,0.8015,-0.389,-0.2135,-0.396
0.038,0.6085,0.57,-0.323,-0.266,0.5895,1.282,1.0845,1.2265,1.3105,1.159,0.809,-0.393,-0.203,-0.4045
0.0355,0.608,0.5725,-0.3215,-0.2685,0.5905,1.283,1.0865,1.2315,1.316,1.1615,0.8085,-0.3965,-0.2,-0.406
0.0515,0.6165,0.565,-0.334,-0.257,0.591,1.283,1.0885,1.2315,1.3165,1.1625,0.806,-0.3995,-0.204,-0.4005
0.056,0.6135,0.557,-0.3345,-0.2505,0.5855,1.283,1.092,1.2365,1.321,1.1635,0.8025,-0.403,-0.208,-0.401
0.058,0.6055,0.547,-0.3315,-0.2445,0.5765,1.2855,1.0975,1.245,1.3295,1.171,0.8055,-0.4035,-0.2205,-0.4045
0.059,0.606,0.547,-0.332,-0.244,0.5765,1.286,1.0995,1.2545,1.3375,1.1775,0.8065,-0.4055,-0.2255,-0.404
0.052,0.608,0.556,-0.3295,-0.252,0.582,1.2805,1.0975,1.254,1.336,1.1715,0.804,-0.4055,-0.2115,-0.4015
0.046,0.6065,0.56,-0.326,-0.257,0.5835,1.281,1.1025,1.26,1.344,1.179,0.8045,-0.406,-0.21,-0.3985
0.0435,0.606,0.5625,-0.3245,-0.2595,0.5845,1.2815,1.105,1.2705,1.355,1.189,0.801,-0.4105,-0.2105,-0.399
0.04,0.608,0.568,-0.324,-0.264,0.5885,1.28,1.104,1.272,1.357,1.19,0.801,-0.414,-0.2075,-0.404
0.039,0.608,0.569,-0.323,-0.265,0.589,1.2775,1.102,1.277,1.3605,1.191,0.7955,-0.4195,-0.2105,-0.4065
0.036,0.607,0.571,-0.321,-0.2675,0.589,1.2765,1.1025,1.283,1.366,1.196,0.7975,-0.4195,-0.21,-0.412
0.0385,0.6095,0.5705,-0.3235,-0.266,0.5905,1.2845,1.112,1.287,1.3645,1.1905,0.7905,-0.4305,-0.211,-0.418
0.038,0.5975,0.5595,-0.3175,-0.2605,0.579,1.292,1.1185,1.299,1.3785,1.199,0.7875,-0.4395,-0.218,-0.422
0.032,0.596,0.5645,-0.3135,-0.2665,0.5805,1.2905,1.1165,1.3085,1.3985,1.2205,0.8015,-0.433,-0.211,-0.4265
0.04,0.628,0.5885,-0.3335,-0.2745,0.6085,1.288,1.1165,1.311,1.3955,1.216,0.79,-0.4435,-0.194,-0.432
0.039,0.6355,0.5965,-0.337,-0.279,0.6165,1.288,1.119,1.3145,1.3965,1.216,0.783,-0.4505,-0.1915,-0.439
0.0325,0.6305,0.598,-0.3315,-0.2825,0.6145,1.2925,1.1245,1.3205,1.4035,1.219,0.783,-0.4525,-0.1935,-0.444
0.0225,0.622,0.5995,-0.322,-0.2885,0.611,1.2945,1.126,1.3245,1.405,1.2175,0.776,-0.458,-0.192,-0.4505
0.0245,0.6265,0.6015,-0.325,-0.2885,0.6145,1.2985,1.128,1.331,1.4125,1.2235,0.777,-0.464,-0.186,-0.4595
0.042,0.651,0.609,-0.346,-0.2835,0.63,1.314,1.1405,1.347,1.4285,1.236,0.783,-0.473,-0.1805,-0.4685
0.037,0.6475,0.6105,-0.3415,-0.287,0.6295,1.319,1.147,1.355,1.4345,1.241,0.7805,-0.478,-0.181,-0.473
0.027,0.6385,0.612,-0.3325,-0.2925,0.6255,1.323,1.152,1.3605,1.438,1.2415,0.7765,-0.4835,-0.181,-0.4765
0.0215,0.6355,0.6145,-0.328,-0.2965,0.625,1.3265,1.1565,1.367,1.445,1.2445,0.7755,-0.488,-0.179,-0.479
0.0155,0.633,0.6175,-0.324,-0.301,0.6255,1.326,1.158,1.372,1.45,1.2475,0.7725,-0.492,-0.1755,-0.4805
0.0155,0.6355,0.6205,-0.325,-0.3025,0.6285,1.331,1.1635,1.3805,1.456,1.2525,0.7715,-0.4975,-0.1765,-0.4855
0.0155,0.633,0.6175,-0.324,-0.301,0.6255,1.3295,1.1635,1.383,1.4585,1.253,0.7675,-0.5015,-0.1845,-0.488
0.0105,0.627,0.6165,-0.3185,-0.303,0.622,1.3285,1.1645,1.3865,1.4615,1.254,0.7645,-0.503,-0.191,-0.489
0.0075,0.627,0.6195,-0.317,-0.306,0.6235,1.3355,1.1725,1.398,1.4705,1.2605,0.765,-0.5085,-0.186,-0.4945
0.0045,0.629,0.624,-0.3165,-0.3095,0.627,1.344,1.1815,1.409,1.4815,1.2665,0.7675,-0.5135,-0.1805,-0.5015
0.005,0.63,0.625,-0.317,-0.31,0.6275,1.3455,1.186,1.414,1.4865,1.27,0.768,-0.5165,-0.181,-0.502
0.004,0.635,0.631,-0.319,-0.313,0.633,1.347,1.1885,1.419,1.492,1.2755,0.765,-0.5215,-0.179,-0.5065
-0.001,0.641,0.642,-0.32,-0.321,0.6415,1.3485,1.193,1.429,1.5005,1.2835,0.7675,-0.5235,-0.173,-0.509
0.0035,0.644,0.6405,-0.3235,-0.318,0.6425,1.345,1.189,1.432,1.5045,1.289,0.7675,-0.526,-0.169,-0.506
0.0085,0.643,0.6345,-0.3255,-0.3125,0.639,1.342,1.1815,1.431,1.507,1.2875,0.762,-0.53,-0.1725,-0.508
0.011,0.6475,0.636,-0.329,-0.312,0.642,1.346,1.1835,1.436,1.5125,1.29,0.763,-0.5315,-0.173,-0.512
0.0115,0.6505,0.6395,-0.3305,-0.3135,0.645,1.3535,1.194,1.4455,1.5215,1.2985,0.765,-0.536,-0.171,-0.5195
0.0105,0.6545,0.6435,-0.332,-0.316,0.6495,1.36,1.2,1.4545,1.5315,1.3065,0.7665,-0.5415,-0.1665,-0.5285
0.0105,0.6585,0.6485,-0.334,-0.3185,0.6535,1.362,1.199,1.46,1.538,1.3115,0.7665,-0.546,-0.167,-0.535
0.0115,0.6625,0.651,-0.337,-0.3195,0.6575,1.369,1.206,1.4675,1.546,1.317,0.767,-0.551,-0.167,-0.544
0.008,0.666,0.658,-0.337,-0.3245,0.6625,1.3795,1.215,1.4775,1.554,1.323,0.769,-0.5555,-0.1555,-0.554
0.007,0.67,0.6625,-0.3385,-0.3275,0.6665,1.3895,1.2255,1.487,1.5615,1.327,0.772,-0.5595,-0.1435,-0.56
0.011,0.678,0.667,-0.3445,-0.3275,0.6725,1.396,1.233,1.495,1.57,1.3335,0.775,-0.563,-0.138,-0.5635
-0.0065,0.659,0.6655,-0.326,-0.3355,0.6625,1.391,1.2325,1.4965,1.5695,1.333,0.769,-0.563,-0.149,-0.555
-0.0285,0.621,0.65,-0.296,-0.3385,0.6355,1.3765,1.222,1.488,1.561,1.324,0.7585,-0.5605,-0.176,-0.5395
-0.034,0.6075,0.6415,-0.2865,-0.3375,0.6245,1.3535,1.2055,1.4805,1.557,1.321,0.752,-0.5565,-0.194,-0.54
-0.0245,0.626,0.6505,-0.3005,-0.337,0.6385,1.3585,1.212,1.491,1.568,1.3325,0.758,-0.5595,-0.1805,-0.553
-0.012,0.6505,0.6625,-0.319,-0.337,0.6565,1.377,1.2235,1.508,1.584,1.3445,0.766,-0.567,-0.158,-0.5635
-0.011,0.6565,0.668,-0.3225,-0.339,0.6625,1.3835,1.23,1.517,1.592,1.352,0.7715,-0.568,-0.152,-0.5695
-0.0135,0.6565,0.6705,-0.3215,-0.3415,0.664,1.389,1.2335,1.5245,1.6015,1.366,0.778,-0.566,-0.154,-0.575
-0.012,0.6545,0.667,-0.321,-0.339,0.661,1.3895,1.2355,1.5305,1.61,1.3755,0.7785,-0.5675,-0.1645,-0.576
-0.011,0.6545,0.6655,-0.3215,-0.338,0.6605,1.3895,1.239,1.534,1.613,1.3715,0.781,-0.568,-0.168,-0.576
-0.0125,0.665,0.6775,-0.326,-0.3445,0.6715,1.391,1.2395,1.541,1.62,1.3785,0.787,-0.569,-0.1515,-0.5845
-0.0045,0.67,0.675,-0.3325,-0.339,0.673,1.3945,1.244,1.546,1.625,1.386,0.789,-0.571,-0.1515,-0.5905
-0.0065,0.6705,0.677,-0.3315,-0.341,0.674,1.398,1.2485,1.5515,1.6305,1.394,0.7945,-0.569,-0.1545,-0.591
-0.001,0.6775,0.679,-0.338,-0.3395,0.6785,1.401,1.25,1.556,1.6345,1.402,0.7965,-0.57,-0.1445,-0.5945
0.0025,0.6835,0.6805,-0.343,-0.3385,0.6825,1.4035,1.2525,1.5605,1.641,1.409,0.802,-0.568,-0.145,-0.5955
0.0,0.6835,0.6835,-0.342,-0.341,0.684,1.403,1.251,1.562,1.6455,1.413,0.804,-0.567,-0.149,-0.6005
-0.002,0.686,0.6885,-0.342,-0.3445,0.6875,1.4085,1.254,1.566,1.65,1.42,0.81,-0.5675,-0.143,-0.6055
0.0135,0.6965,0.683,-0.3545,-0.334,0.69,1.407,1.255,1.5685,1.654,1.427,0.816,-0.5635,-0.129,-0.605
0.0645,0.701,0.6365,-0.3825,-0.286,0.669,1.3855,1.2375,1.5535,1.64,1.413,0.8,-0.562,-0.121,-0.6035
0.008,0.691,0.6825,-0.349,-0.337,0.687,1.399,1.2515,1.5695,1.657,1.4345,0.8215,-0.555,-0.132,-0.5955
-0.0405,0.681,0.7215,-0.32,-0.3805,0.7015,1.4065,1.26,1.583,1.67,1.4505,0.8385,-0.548,-0.144,-0.5945
-0.0105,0.6755,0.686,-0.3325,-0.348,0.681,1.3895,1.2445,1.5645,1.654,1.437,0.8275,-0.5425,-0.1425,-0.5945
-0.0045,0.6815,0.686,-0.338,-0.3445,0.684,1.399,1.2525,1.5655,1.657,1.443,0.835,-0.5375,-0.135,-0.593
-0.0015,0.6765,0.678,-0.337,-0.339,0.6775,1.3975,1.25,1.5635,1.6555,1.444,0.837,-0.5335,-0.1435,-0.5895
-0.012,0.6655,0.678,-0.3265,-0.3445,0.672,1.3915,1.2435,1.5565,1.6515,1.4435,0.839,-0.5275,-0.1485,-0.5865
0.004,0.6875,0.684,-0.3455,-0.3395,0.686,1.3945,1.246,1.56,1.656,1.4525,0.849,-0.524,-0.141,-0.5935
0.0235,0.7075,0.684,-0.365,-0.3295,0.696,1.4,1.2495,1.563,1.662,1.4625,0.861,-0.5185,-0.139,-0.5925
0.02,0.7045,0.684,-0.362,-0.3315,0.6945,1.3985,1.25,1.56,1.66,1.4655,0.866,-0.5115,-0.1355,-0.5865
0.019,0.7005,0.6815,-0.3595,-0.331,0.691,1.3885,1.2435,1.554,1.654,1.4625,0.8695,-0.503,-0.132,-0.5805
0.0205,0.702,0.6815,-0.361,-0.33,0.692,1.3815,1.236,1.544,1.648,1.46,0.8735,-0.494,-0.126,-0.5745
0.023,0.705,0.6825,-0.364,-0.329,0.694,1.371,1.2245,1.5315,1.6385,1.4565,0.8745,-0.485,-0.1295,-0.569
0.023,0.705,0.682,-0.3635,-0.329,0.6935,1.365,1.215,1.521,1.6295,1.454,0.878,-0.477,-0.138,-0.562
0.0255,0.7035,0.678,-0.3645,-0.3255,0.691,1.356,1.2035,1.5085,1.6195,1.4515,0.8805,-0.468,-0.1405,-0.556
0.031,0.708,0.677,-0.3695,-0.3225,0.693,1.346,1.1925,1.496,1.6095,1.447,0.885,-0.457,-0.136,-0.5485
0.035,0.7165,0.682,-0.3755,-0.323,0.6995,1.3405,1.1865,1.487,1.602,1.4455,0.8905,-0.447,-0.125,-0.544
0.0415,0.7225,0.681,-0.382,-0.3195,0.7025,1.335,1.181,1.479,1.5965,1.445,0.8975,-0.4375,-0.117,-0.5405
0.048,0.725,0.677,-0.3865,-0.314,0.7015,1.3335,1.1785,1.4705,1.5905,1.443,0.906,-0.4275,-0.1135,-0.533
0.05,0.7275,0.6775,-0.3885,-0.313,0.7025,1.3275,1.1715,1.459,1.581,1.439,0.913,-0.4165,-0.114,-0.5245
0.051,0.7295,0.6785,-0.39,-0.313,0.7045,1.3165,1.158,1.4435,1.5675,1.4335,0.9155,-0.406,-0.108,-0.5185
0.0535,0.7305,0.677,-0.392,-0.3115,0.704,1.3105,1.1495,1.4315,1.559,1.4315,0.9215,-0.396,-0.106,-0.512
0.0625,0.731,0.6685,-0.3965,-0.3035,0.7,1.3035,1.141,1.4195,1.5495,1.4275,0.9285,-0.3835,-0.112,-0.504
0.068,0.732,0.664,-0.3995,-0.298,0.6985,1.2985,1.133,1.407,1.5365,1.422,0.9365,-0.3705,-0.113,-0.4965
0.071,0.7375,0.666,-0.404,-0.2975,0.702,1.2935,1.1235,1.3925,1.5265,1.4165,0.9395,-0.361,-0.112,-0.4885
0.0805,0.742,0.6615,-0.411,-0.2905,0.702,1.2845,1.1145,1.3795,1.5145,1.413,0.9455,-0.349,-0.116,-0.4785
0.0875,0.7445,0.657,-0.4155,-0.2845,0.701,1.276,1.107,1.367,1.502,1.407,0.9535,-0.3365,-0.118,-0.468
0.0885,0.743,0.6545,-0.4155,-0.283,0.699,1.263,1.094,1.3465,1.4855,1.3945,0.953,-0.325,-0.1195,-0.456
0.092,0.7445,0.6525,-0.4175,-0.2805,0.6985,1.252,1.083,1.3295,1.4695,1.385,0.954,-0.315,-0.117,-0.4475
0.0935,0.746,0.652,-0.4195,-0.2795,0.6995,1.2455,1.0725,1.315,1.457,1.381,0.9635,-0.3005,-0.1065,-0.4405
0.0965,0.741,0.644,-0.4185,-0.274,0.693,1.2325,1.0625,1.297,1.433,1.362,0.963,-0.293,-0.11,-0.4245
0.134,0.743,0.6085,-0.4385,-0.237,0.676,1.204,1.037,1.273,1.4105,1.34,0.948,-0.288,-0.111,-0.415
0.1365,0.747,0.61,-0.4415,-0.2365,0.6785,1.1895,1.0205,1.2605,1.4095,1.3475,0.9655,-0.2655,-0.104,-0.4075
0.0865,0.7445,0.658,-0.415,-0.286,0.7015,1.1995,1.032,1.2625,1.41,1.3515,0.985,-0.257,-0.103,-0.3955
0.0905,0.742,0.6515,-0.416,-0.2805,0.697,1.1915,1.022,1.2465,1.391,1.337,0.9825,-0.249,-0.103,-0.384
0.1165,0.748,0.6315,-0.432,-0.2575,0.69,1.179,1.01,1.2275,1.371,1.3225,0.982,-0.2375,-0.103,-0.374
0.1165,0.745,0.6285,-0.4305,-0.256,0.687,1.178,1.0045,1.2125,1.354,1.309,0.9805,-0.232,-0.106,-0.3645
0.1155,0.7375,0.6215,-0.426,-0.253,0.6795,1.1805,0.995,1.194,1.3355,1.2955,0.979,-0.225,-0.113,-0.3545
0.1145,0.7305,0.616,-0.4225,-0.2505,0.6735,1.1765,0.985,1.176,1.3175,1.2815,0.978,-0.217,-0.1175,-0.3445
0.1175,0.7285,0.611,-0.4225,-0.2465,0.67,1.178,0.978,1.1605,1.304,1.2705,0.978,-0.2105,-0.1155,-0.3395
0.133,0.7445,0.6115,-0.438,-0.239,0.678,1.1775,0.9765,1.152,1.295,1.2645,0.983,-0.205,-0.108,-0.336
0.133,0.733,0.5995,-0.4325,-0.2335,0.6665,1.163,0.9665,1.14,1.2795,1.254,0.983,-0.199,-0.1085,-0.3245
0.1335,0.717,0.584,-0.425,-0.225,0.651,1.1585,0.9605,1.1295,1.268,1.243,0.9835,-0.1945,-0.115,-0.3105
0.125,0.7005,0.5755,-0.4125,-0.225,0.6385,1.143,0.946,1.1095,1.2495,1.2265,0.9795,-0.1855,-0.1305,-0.2925
0.1155,0.691,0.5755,-0.403,-0.23,0.6335,1.133,0.9345,1.091,1.2305,1.2095,0.9735,-0.1795,-0.1375,-0.281
0.14,0.7165,0.577,-0.428,-0.2185,0.647,1.135,0.934,1.0875,1.226,1.206,0.9785,-0.175,-0.126,-0.2825
0.1605,0.7275,0.567,-0.444,-0.2035,0.6475,1.135,0.9345,1.0795,1.2155,1.199,0.9815,-0.1705,-0.13,-0.285
0.1615,0.7145,0.5535,-0.438,-0.196,0.6345,1.135,0.933,1.066,1.2005,1.185,0.978,-0.1635,-0.1475,-0.2785
0.153,0.6975,0.544,-0.4245,-0.1955,0.621,1.128,0.9245,1.052,1.185,1.17,0.972,-0.1585,-0.1515,-0.269
0.1595,0.697,0.5375,-0.428,-0.189,0.6175,1.127,0.923,1.0445,1.176,1.161,0.972,-0.1565,-0.1485,-0.2645
0.171,0.704,0.5325,-0.4375,-0.1805,0.6185,1.1255,0.9235,1.039,1.1705,1.157,0.9745,-0.154,-0.1535,-0.2605
0.17,0.699,0.5285,-0.4345,-0.179,0.614,1.1225,0.9195,1.032,1.161,1.1495,0.973,-0.1505,-0.155,-0.255
0.1725,0.6965,0.5245,-0.434,-0.176,0.611,1.116,0.9115,1.021,1.1485,1.139,0.971,-0.1455,-0.1525,-0.246
0.1725,0.6935,0.5205,-0.4325,-0.174,0.607,1.1115,0.9075,1.011,1.136,1.1285,0.969,-0.142,-0.157,-0.237
0.1725,0.6855,0.513,-0.4285,-0.17,0.599,1.1095,0.906,1.002,1.125,1.119,0.9665,-0.1395,-0.1625,-0.23
0.18,0.6845,0.5045,-0.432,-0.1625,0.5945,1.107,0.906,0.993,1.1145,1.1095,0.964,-0.1365,-0.1655,-0.2225
0.1825,0.6805,0.498,-0.431,-0.158,0.5895,1.1065,0.9065,0.987,1.105,1.1,0.9615,-0.1345,-0.171,-0.2155
0.1785,0.678,0.4995,-0.428,-0.1605,0.589,1.106,0.9035,0.98,1.098,1.0915,0.958,-0.137,-0.1675,-0.2155
0.178,0.676,0.498,-0.4265,-0.16,0.587,1.106,0.9025,0.9735,1.0895,1.085,0.9545,-0.137,-0.1715,-0.2105
0.178,0.6695,0.4915,-0.4235,-0.157,0.581,1.1035,0.8975,0.9655,1.082,1.0755,0.951,-0.135,-0.18,-0.204
0.1745,0.664,0.4895,-0.419,-0.1575,0.577,1.1005,0.892,0.9585,1.0755,1.068,0.9465,-0.1345,-0.185,-0.201
0.1735,0.6555,0.4825,-0.414,-0.1545,0.569,1.097,0.886,0.95,1.0665,1.061,0.945,-0.1315,-0.1935,-0.1955
0.174,0.652,0.478,-0.413,-0.152,0.5655,1.096,0.8845,0.945,1.062,1.056,0.945,-0.1295,-0.1925,-0.191
0.17,0.65,0.48,-0.4095,-0.155,0.565,1.0935,0.8835,0.9395,1.058,1.0515,0.942,-0.1285,-0.1935,-0.191
0.1695,0.644,0.4745,-0.4065,-0.1525,0.5595,1.0885,0.874,0.928,1.048,1.04,0.937,-0.128,-0.1965,-0.1875
0.173,0.6365,0.4635,-0.4045,-0.145,0.55,1.0865,0.865,0.9185,1.0375,1.0315,0.93,-0.1275,-0.2015,-0.1805
0.1755,0.6325,0.457,-0.404,-0.1405,0.545,1.085,0.863,0.9125,1.0325,1.0245,0.9285,-0.126,-0.2085,-0.176
0.173,0.6285,0.4555,-0.4005,-0.1415,0.5425,1.0865,0.864,0.906,1.026,1.018,0.926,-0.126,-0.2125,-0.1715
0.1745,0.6285,0.454,-0.4015,-0.14,0.5415,1.09,0.867,0.906,1.0215,1.0165,0.9235,-0.1275,-0.211,-0.1675
0.176,0.624,0.448,-0.3995,-0.136,0.5365,1.085,0.865,0.9015,1.015,1.011,0.9215,-0.125,-0.213,-0.161
0.179,0.623,0.444,-0.401,-0.1325,0.5335,1.085,0.866,0.898,1.0105,1.0085,0.9195,-0.1255,-0.221,-0.156
0.1805,0.625,0.445,-0.4025,-0.1325,0.535,1.0795,0.862,0.893,1.005,1.0025,0.919,-0.125,-0.213,-0.157
0.183,0.624,0.4415,-0.403,-0.1295,0.533,1.065,0.849,0.885,0.999,0.9975,0.914,-0.122,-0.2135,-0.155
0.2015,0.6425,0.441,-0.4215,-0.12,0.542,1.0655,0.85,0.882,0.995,0.994,0.9165,-0.118,-0.2165,-0.149
0.1945,0.634,0.4395,-0.414,-0.1225,0.537,1.052,0.841,0.8655,0.981,0.9805,0.9105,-0.11,-0.2185,-0.1405
0.1865,0.623,0.437,-0.4045,-0.125,0.5305,1.041,0.835,0.8665,0.9835,0.9865,0.9065,-0.106,-0.221,-0.1385
0.189,0.6265,0.438,-0.4075,-0.1245,0.5325,1.046,0.8365,0.868,0.985,0.987,0.9095,-0.103,-0.2175,-0.1375
0.18,0.6135,0.4335,-0.397,-0.127,0.524,1.0495,0.833,0.8585,0.976,0.9785,0.906,-0.1005,-0.219,-0.137
0.1805,0.6155,0.435,-0.398,-0.1275,0.5255,1.0445,0.8295,0.856,0.973,0.978,0.906,-0.0975,-0.217,-0.1345
0.1815,0.623,0.4415,-0.402,-0.13,0.5325,1.032,0.8225,0.8525,0.969,0.9745,0.9045,-0.0925,-0.2125,-0.1275
0.181,0.6245,0.4435,-0.4025,-0.1315,0.5345,1.027,0.8185,0.8505,0.966,0.9725,0.901,-0.091,-0.209,-0.116
0.1835,0.6075,0.4245,-0.395,-0.1205,0.5165,1.0315,0.8235,0.853,0.97,0.975,0.9065,-0.091,-0.2235,-0.101
0.191,0.599,0.4075,-0.3945,-0.1085,0.5035,1.041,0.8335,0.864,0.9805,0.986,0.92,-0.0885,-0.24,-0.101
0.1855,0.6015,0.4155,-0.393,-0.115,0.5085,1.0385,0.83,0.856,0.975,0.9785,0.9165,-0.0845,-0.2415,-0.1145
0.175,0.5935,0.4185,-0.384,-0.122,0.5065,1.027,0.8185,0.8445,0.9655,0.9675,0.909,-0.0795,-0.2415,-0.124
0.178,0.5945,0.4165,-0.386,-0.1195,0.5055,1.0165,0.813,0.8425,0.9625,0.969,0.9065,-0.077,-0.2385,-0.1225
0.1865,0.6025,0.4155,-0.394,-0.1145,0.5095,1.018,0.8145,0.844,0.965,0.971,0.907,-0.0765,-0.2345,-0.117
0.1855,0.598,0.4125,-0.3915,-0.114,0.5055,1.0105,0.8115,0.842,0.962,0.9705,0.9085,-0.0725,-0.237,-0.0995
0.196,0.6165,0.4205,-0.406,-0.1125,0.5185,1.015,0.814,0.842,0.9615,0.97,0.91,-0.0745,-0.2305,-0.103
0.22,0.6495,0.429,-0.4345,-0.1045,0.5395,1.0355,0.827,0.853,0.972,0.9805,0.9185,-0.0775,-0.217,-0.124
0.2075,0.6335,0.4265,-0.4205,-0.1095,0.5305,1.0225,0.8205,0.843,0.961,0.9735,0.91,-0.0745,-0.221,-0.1195
0.1925,0.625,0.432,-0.4085,-0.1195,0.529,1.012,0.81,0.8335,0.9535,0.9645,0.903,-0.073,-0.216,-0.1185
0.2005,0.632,0.4315,-0.416,-0.1155,0.532,1.0185,0.8135,0.839,0.9575,0.968,0.9065,-0.0735,-0.212,-0.12
0.1985,0.6205,0.4215,-0.409,-0.1115,0.521,1.019,0.815,0.839,0.957,0.969,0.9065,-0.072,-0.2215,-0.1155
0.1985,0.6115,0.413,-0.4045,-0.1075,0.5125,1.0195,0.818,0.842,0.9595,0.9715,0.9095,-0.069,-0.224,-0.1135
0.2015,0.611,0.4095,-0.406,-0.1045,0.5105,1.021,0.82,0.842,0.959,0.9715,0.909,-0.0715,-0.2205,-0.1135
0.2015,0.6125,0.411,-0.4065,-0.105,0.512,1.02,0.8195,0.8405,0.96,0.9715,0.909,-0.0715,-0.2185,-0.1145
0.2065,0.618,0.412,-0.412,-0.103,0.515,1.0175,0.8195,0.841,0.9605,0.971,0.9105,-0.0695,-0.223,-0.112
0.209,0.622,0.413,-0.4155,-0.102,0.518,1.0155,0.821,0.8425,0.9615,0.9725,0.912,-0.07,-0.223,-0.1095
0.208,0.622,0.414,-0.4145,-0.103,0.5185,1.014,0.8215,0.8445,0.9635,0.973,0.9135,-0.0675,-0.223,-0.107
0.2035,0.6235,0.42,-0.4135,-0.108,0.522,1.0105,0.818,0.8425,0.9615,0.9705,0.9125,-0.0655,-0.2165,-0.1055
0.208,0.622,0.414,-0.4145,-0.103,0.518,1.0065,0.815,0.84,0.9605,0.9685,0.912,-0.064,-0.2275,-0.1015
0.2085,0.6185,0.41,-0.413,-0.1005,0.5145,1.005,0.8125,0.838,0.959,0.9665,0.9105,-0.0625,-0.247,-0.099
0.205,0.6175,0.4125,-0.411,-0.1035,0.515,1.0065,0.8165,0.84,0.959,0.9675,0.9105,-0.0635,-0.2375,-0.1
0.2095,0.619,0.41,-0.414,-0.1,0.5145,1.011,0.8185,0.842,0.9615,0.9685,0.9125,-0.063,-0.223,-0.1005
0.2115,0.6245,0.413,-0.4175,-0.101,0.519,1.014,0.8225,0.845,0.966,0.972,0.9155,-0.062,-0.212,-0.1
0.2105,0.627,0.417,-0.4185,-0.103,0.5225,1.0135,0.8235,0.8455,0.9665,0.9725,0.914,-0.0635,-0.2145,-0.0995
0.2055,0.6215,0.4165,-0.4135,-0.1055,0.5195,1.004,0.8105,0.8395,0.96,0.9675,0.9085,-0.063,-0.2255,-0.0975
0.206,0.624,0.418,-0.415,-0.106,0.521,1.002,0.813,0.8415,0.9625,0.9675,0.9105,-0.0625,-0.2205,-0.097
0.2105,0.629,0.419,-0.4195,-0.1045,0.5245,1.008,0.819,0.8465,0.967,0.9725,0.916,-0.062,-0.2145,-0.101
0.224,0.6415,0.4175,-0.4325,-0.097,0.5295,1.0175,0.8275,0.852,0.9715,0.977,0.919,-0.064,-0.2145,-0.1005
0.222,0.638,0.4165,-0.43,-0.097,0.5275,1.0175,0.8295,0.8515,0.971,0.9755,0.9185,-0.0615,-0.2135,-0.0975
0.2085,0.614,0.406,-0.411,-0.099,0.5105,1.0035,0.816,0.84,0.96,0.966,0.9145,-0.054,-0.2255,-0.087
0.1965,0.6025,0.406,-0.399,-0.105,0.5045,0.992,0.807,0.833,0.954,0.9615,0.906,-0.055,-0.2275,-0.0835
0.189,0.6015,0.4125,-0.395,-0.1115,0.507,0.9865,0.803,0.8355,0.958,0.9645,0.91,-0.054,-0.222,-0.0905
0.203,0.613,0.41,-0.4075,-0.1035,0.5115,0.9975,0.814,0.843,0.966,0.976,0.9205,-0.0535,-0.2275,-0.091
0.211,0.6035,0.3925,-0.407,-0.0905,0.498,1.0065,0.821,0.8385,0.961,0.9735,0.9145,-0.057,-0.235,-0.087
0.213,0.584,0.371,-0.398,-0.079,0.478,1.0035,0.817,0.829,0.95,0.96,0.91,-0.0565,-0.2465,-0.081
0.2105,0.5815,0.371,-0.3955,-0.0805,0.4765,1.005,0.8155,0.828,0.951,0.9625,0.9125,-0.056,-0.249,-0.08
0.207,0.596,0.389,-0.401,-0.091,0.4925,0.9995,0.8085,0.824,0.948,0.9565,0.9045,-0.0575,-0.2375,-0.082
0.206,0.613,0.4075,-0.409,-0.101,0.5105,0.99,0.7985,0.816,0.9395,0.9475,0.8945,-0.0595,-0.226,-0.083
0.2035,0.6165,0.413,-0.4095,-0.105,0.515,0.9905,0.798,0.816,0.9405,0.95,0.894,-0.06,-0.222,-0.0855
0.2025,0.619,0.4165,-0.4105,-0.1075,0.518,0.995,0.802,0.8175,0.9425,0.9505,0.8945,-0.0625,-0.215,-0.088
0.2025,0.616,0.414,-0.409,-0.106,0.5155,0.9955,0.8005,0.8185,0.9435,0.953,0.8955,-0.062,-0.225,-0.088
0.2015,0.612,0.4105,-0.4065,-0.1045,0.5115,0.9945,0.799,0.8155,0.939,0.942,0.89,-0.066,-0.2375,-0.086
0.2045,0.6125,0.4085,-0.408,-0.102,0.5105,1.001,0.8065,0.8165,0.9325,0.934,0.8855,-0.0725,-0.2305,-0.0845
0.204,0.6075,0.403,-0.405,-0.0995,0.5055,1.0045,0.808,0.826,0.9495,0.9595,0.903,-0.062,-0.222,-0.088
0.202,0.59,0.388,-0.396,-0.093,0.489,1.009,0.81,0.8325,0.961,0.9735,0.9145,-0.057,-0.232,-0.091
0.2045,0.5995,0.395,-0.4015,-0.0955,0.4975,1.0125,0.811,0.829,0.954,0.9605,0.906,-0.064,-0.234,-0.092
0.2025,0.623,0.4205,-0.4125,-0.109,0.522,1.0085,0.8065,0.823,0.948,0.9575,0.8995,-0.065,-0.2165,-0.0955
0.208,0.6315,0.4235,-0.4195,-0.108,0.528,1.0105,0.8085,0.824,0.949,0.9585,0.8995,-0.065,-0.2085,-0.096
0.201,0.6295,0.429,-0.415,-0.114,0.5295,1.005,0.805,0.82,0.945,0.9535,0.895,-0.0665,-0.2065,-0.097
0.1955,0.625,0.4295,-0.4105,-0.117,0.528,0.996,0.801,0.8165,0.938,0.949,0.891,-0.0665,-0.212,-0.0955
0.1995,0.625,0.4255,-0.412,-0.113,0.5255,0.997,0.8015,0.8195,0.9415,0.952,0.8935,-0.0645,-0.214,-0.0945
0.198,0.6245,0.4265,-0.411,-0.114,0.5255,0.999,0.802,0.8215,0.944,0.9535,0.8945,-0.0665,-0.214,-0.097
0.204,0.63,0.426,-0.4165,-0.111,0.5285,1.0005,0.8045,0.824,0.947,0.955,0.8965,-0.068,-0.2165,-0.099
0.2045,0.6315,0.427,-0.418,-0.1115,0.5295,1.0055,0.8085,0.8275,0.949,0.957,0.897,-0.07,-0.2125,-0.1015
0.2085,0.636,0.428,-0.422,-0.11,0.5325,1.008,0.8105,0.83,0.9495,0.9595,0.899,-0.0705,-0.21,-0.1025
0.209,0.637,0.428,-0.4225,-0.1095,0.5325,1.009,0.8115,0.8315,0.9535,0.9615,0.902,-0.0695,-0.211,-0.1025
0.195,0.621,0.426,-0.408,-0.1155,0.524,1.0045,0.8075,0.827,0.949,0.956,0.896,-0.0695,-0.2215,-0.0995
0.1855,0.613,0.4275,-0.399,-0.121,0.5205,1.002,0.806,0.8245,0.9455,0.954,0.893,-0.0685,-0.2215,-0.1
0.191,0.622,0.4315,-0.406,-0.12,0.527,1.0085,0.8145,0.8305,0.952,0.96,0.8995,-0.07,-0.21,-0.104
0.1965,0.6305,0.434,-0.4135,-0.1185,0.5325,1.0155,0.82,0.835,0.958,0.965,0.903,-0.073,-0.2035,-0.108
0.1975,0.631,0.4335,-0.4145,-0.118,0.5325,1.0165,0.82,0.8355,0.9595,0.965,0.9035,-0.0755,-0.2005,-0.1075
0.201,0.6305,0.4295,-0.4155,-0.1145,0.5305,1.008,0.816,0.835,0.958,0.9625,0.9035,-0.074,-0.209,-0.1045
0.206,0.633,0.427,-0.419,-0.1105,0.5305,0.9965,0.8095,0.8345,0.959,0.964,0.904,-0.074,-0.219,-0.103
0.21,0.6385,0.4285,-0.424,-0.1095,0.534,0.9965,0.8115,0.839,0.9625,0.9685,0.907,-0.075,-0.214,-0.1045
0.2095,0.642,0.4325,-0.4255,-0.1115,0.5375,1.002,0.817,0.8445,0.967,0.9725,0.909,-0.0765,-0.207,-0.1085
0.208,0.6405,0.4325,-0.424,-0.1125,0.5365,1.0035,0.8185,0.844,0.966,0.9715,0.9095,-0.075,-0.205,-0.1055
0.2005,0.6335,0.433,-0.417,-0.116,0.5335,1.0035,0.8185,0.8425,0.9625,0.969,0.907,-0.075,-0.2045,-0.1
0.202,0.629,0.427,-0.415,-0.1125,0.528,1.0035,0.8155,0.8395,0.9615,0.967,0.905,-0.0745,-0.214,-0.0915
0.2025,0.6295,0.4275,-0.416,-0.1125,0.529,1.0095,0.813,0.837,0.9565,0.964,0.903,-0.0745,-0.216,-0.089
0.1925,0.622,0.4295,-0.407,-0.1185,0.526,1.019,0.8145,0.8335,0.9515,0.958,0.8975,-0.078,-0.2175,-0.094
0.195,0.6215,0.4265,-0.408,-0.1155,0.524,1.031,0.822,0.834,0.9515,0.958,0.8985,-0.0785,-0.2185,-0.0925
0.1985,0.6275,0.429,-0.413,-0.1155,0.529,1.0385,0.83,0.8395,0.9545,0.9625,0.9025,-0.081,-0.209,-0.093
0.2005,0.6265,0.4265,-0.413,-0.113,0.5265,1.038,0.8275,0.8385,0.955,0.962,0.902,-0.081,-0.215,-0.0965
0.201,0.627,0.426,-0.4135,-0.1125,0.527,1.0405,0.828,0.8385,0.9555,0.9635,0.903,-0.0815,-0.222,-0.106
0.191,0.6155,0.4245,-0.403,-0.117,0.5205,1.0315,0.8235,0.835,0.9515,0.961,0.901,-0.079,-0.2215,-0.1095
0.197,0.6205,0.4235,-0.4085,-0.1135,0.522,1.029,0.8195,0.834,0.951,0.96,0.901,-0.079,-0.218,-0.1125
0.2015,0.628,0.4265,-0.4145,-0.1125,0.5275,1.035,0.8215,0.837,0.952,0.9615,0.9025,-0.082,-0.215,-0.122
0.1905,0.6165,0.426,-0.403,-0.118,0.5215,1.023,0.812,0.829,0.9455,0.955,0.897,-0.078,-0.221,-0.1235
0.1905,0.612,0.421,-0.401,-0.1155,0.517,1.0215,0.812,0.827,0.9435,0.9535,0.895,-0.0785,-0.22,-0.122
0.19,0.611,0.421,-0.4,-0.1155,0.516,1.027,0.8165,0.8295,0.9445,0.9535,0.8965,-0.0795,-0.2195,-0.123
0.196,0.619,0.423,-0.4075,-0.1135,0.5215,1.0275,0.8175,0.8295,0.943,0.952,0.896,-0.08,-0.223,-0.122
0.2015,0.625,0.424,-0.413,-0.1115,0.525,1.029,0.818,0.8305,0.9445,0.9535,0.8965,-0.081,-0.218,-0.1195
0.2005,0.6245,0.4245,-0.4125,-0.112,0.525,1.028,0.8165,0.832,0.9465,0.9565,0.9015,-0.0775,-0.2195,-0.1185
0.2055,0.626,0.4205,-0.4155,-0.108,0.524,1.031,0.8225,0.835,0.946,0.959,0.9015,-0.0795,-0.2205,-0.1195
0.2025,0.6275,0.425,-0.415,-0.111,0.5265,1.033,0.824,0.8355,0.946,0.9555,0.8985,-0.0825,-0.21,-0.1185
0.2025,0.629,0.4265,-0.4155,-0.112,0.528,1.0335,0.8245,0.833,0.9455,0.956,0.899,-0.0835,-0.2115,-0.1175
0.201,0.625,0.424,-0.413,-0.1115,0.5245,1.0305,0.82,0.83,0.9425,0.9545,0.8955,-0.0855,-0.2135,-0.1175
0.202,0.6255,0.424,-0.4135,-0.111,0.525,1.034,0.8215,0.8315,0.945,0.9545,0.897,-0.084,-0.2095,-0.1155
0.198,0.6235,0.4255,-0.4105,-0.114,0.5245,1.035,0.8245,0.8315,0.9445,0.9555,0.896,-0.085,-0.2035,-0.1155
0.179,0.609,0.43,-0.3935,-0.1255,0.52,1.018,0.811,0.8215,0.9355,0.943,0.887,-0.0835,-0.2035,-0.112
0.1765,0.6075,0.431,-0.3915,-0.127,0.5195,1.0155,0.809,0.818,0.9315,0.939,0.8835,-0.085,-0.209,-0.1075
0.1815,0.6165,0.435,-0.399,-0.1265,0.526,1.02,0.8115,0.8225,0.9365,0.945,0.888,-0.0885,-0.2095,-0.1085
0.194,0.6415,0.4475,-0.4175,-0.127,0.545,1.0265,0.8165,0.831,0.9445,0.953,0.896,-0.091,-0.2025,-0.111
0.199,0.649,0.45,-0.4235,-0.1255,0.5495,1.0255,0.812,0.8275,0.943,0.952,0.8935,-0.094,-0.1955,-0.109
0.183,0.621,0.438,-0.402,-0.1275,0.53,1.009,0.7965,0.813,0.9305,0.938,0.8815,-0.0905,-0.206,-0.1075
0.1855,0.6255,0.4405,-0.4055,-0.1275,0.533,1.018,0.805,0.8155,0.9305,0.9395,0.8825,-0.0915,-0.2055,-0.112
0.182,0.621,0.4395,-0.401,-0.129,0.5305,1.0245,0.8115,0.818,0.9325,0.9395,0.882,-0.0945,-0.2055,-0.1155
0.1725,0.6125,0.44,-0.392,-0.1335,0.5265,1.0295,0.8155,0.8195,0.9335,0.939,0.883,-0.0955,-0.211,-0.1265
0.1985,0.642,0.4435,-0.42,-0.1225,0.543,1.048,0.8275,0.832,0.946,0.951,0.893,-0.1,-0.2135,-0.139
0.2045,0.646,0.4415,-0.425,-0.1185,0.544,1.0535,0.8285,0.8345,0.9495,0.952,0.8925,-0.1045,-0.216,-0.14
0.1915,0.637,0.4455,-0.414,-0.127,0.5415,1.0525,0.828,0.8325,0.9455,0.948,0.8895,-0.105,-0.212,-0.139
0.1845,0.627,0.4425,-0.4055,-0.129,0.535,1.0425,0.8225,0.826,0.94,0.943,0.884,-0.1025,-0.2115,-0.136
0.1755,0.614,0.4385,-0.3945,-0.1315,0.5265,1.04,0.8185,0.82,0.9375,0.9375,0.8805,-0.102,-0.204,-0.1315
0.1835,0.6205,0.4375,-0.4015,-0.127,0.529,1.0495,0.8245,0.825,0.9415,0.941,0.883,-0.1045,-0.2065,-0.1325
0.1795,0.62,0.4405,-0.3995,-0.1305,0.5305,1.041,0.8205,0.822,0.938,0.94,0.881,-0.102,-0.2115,-0.129
0.166,0.605,0.4385,-0.3855,-0.136,0.522,1.035,0.819,0.8195,0.9355,0.937,0.8785,-0.1025,-0.2105,-0.1235
0.166,0.602,0.4355,-0.384,-0.1345,0.519,1.04,0.8215,0.8215,0.936,0.9365,0.878,-0.105,-0.208,-0.1235
0.1735,0.612,0.438,-0.3925,-0.1325,0.5255,1.0375,0.819,0.818,0.9355,0.936,0.879,-0.1055,-0.2065,-0.1215
0.1735,0.615,0.4415,-0.394,-0.134,0.5285,1.0355,0.8165,0.8155,0.9355,0.935,0.8765,-0.1075,-0.2055,-0.123
0.17,0.617,0.447,-0.3935,-0.1385,0.5325,1.0355,0.814,0.813,0.9315,0.931,0.872,-0.109,-0.203,-0.123
0.171,0.6145,0.4435,-0.3925,-0.136,0.5295,1.0375,0.8175,0.813,0.9285,0.929,0.871,-0.109,-0.207,-0.1195
0.1665,0.6025,0.4355,-0.384,-0.1345,0.519,1.0375,0.814,0.808,0.9225,0.9235,0.8655,-0.1085,-0.214,-0.1235
0.1595,0.5925,0.4335,-0.3755,-0.137,0.5135,1.043,0.814,0.804,0.917,0.9175,0.8605,-0.1105,-0.218,-0.1265
0.156,0.582,0.4265,-0.369,-0.1355,0.5045,1.0495,0.816,0.802,0.9125,0.912,0.8555,-0.112,-0.2255,-0.1245
0.1595,0.5835,0.424,-0.371,-0.1325,0.504,1.0495,0.81,0.7955,0.907,0.9065,0.8585,-0.1125,-0.228,-0.1225
0.1625,0.592,0.43,-0.377,-0.1335,0.511,1.0455,0.8115,0.8015,0.9135,0.9135,0.861,-0.1145,-0.226,-0.1225
0.1575,0.585,0.4275,-0.371,-0.135,0.5065,1.039,0.808,0.802,0.912,0.9135,0.8585,-0.1135,-0.225,-0.1215
0.1505,0.58,0.43,-0.365,-0.1395,0.5055,1.0375,0.8055,0.7965,0.9055,0.9045,0.8545,-0.115,-0.221,-0.122
0.158,0.5805,0.4225,-0.369,-0.1325,0.502,1.037,0.806,0.798,0.9075,0.9065,0.8555,-0.1135,-0.2285,-0.119
0.1615,0.58,0.4185,-0.3705,-0.1285,0.4995,1.04,0.809,0.7995,0.9075,0.906,0.859,-0.112,-0.2355,-0.116
0.187,0.581,0.394,-0.384,-0.1035,0.488,1.0335,0.8025,0.793,0.9025,0.8975,0.8525,-0.111,-0.236,-0.1165
0.2045,0.578,0.3735,-0.3915,-0.0845,0.476,1.0305,0.8025,0.785,0.892,0.889,0.848,-0.1115,-0.2335,-0.1155
0.146,0.575,0.429,-0.36,-0.142,0.502,1.052,0.8245,0.801,0.905,0.8975,0.853,-0.1225,-0.2305,-0.117
0.1355,0.5765,0.441,-0.356,-0.1525,0.509,1.059,0.8265,0.812,0.923,0.917,0.867,-0.1165,-0.2355,-0.1155
0.1565,0.574,0.4175,-0.365,-0.1305,0.496,1.052,0.8205,0.8045,0.915,0.91,0.863,-0.1135,-0.24,-0.112
0.1535,0.573,0.42,-0.363,-0.1335,0.4965,1.0495,0.8185,0.801,0.909,0.9025,0.856,-0.118,-0.2375,-0.115
0.169,0.5815,0.4125,-0.375,-0.122,0.4975,1.049,0.8155,0.8035,0.9125,0.9085,0.8635,-0.1155,-0.2375,-0.1175
0.164,0.5685,0.4045,-0.366,-0.1205,0.487,1.0415,0.811,0.799,0.9075,0.902,0.8605,-0.112,-0.247,-0.107
0.1555,0.5575,0.402,-0.356,-0.123,0.48,1.036,0.807,0.7955,0.9025,0.899,0.8525,-0.115,-0.2515,-0.1075
0.1495,0.555,0.4055,-0.352,-0.128,0.4805,1.0375,0.8065,0.795,0.9005,0.8985,0.85,-0.1175,-0.2455,-0.1105
0.1435,0.549,0.405,-0.346,-0.131,0.477,1.0355,0.805,0.7935,0.8995,0.897,0.8505,-0.116,-0.245,-0.1075
0.174,0.5805,0.4065,-0.377,-0.1165,0.494,1.0505,0.815,0.806,0.911,0.91,0.8615,-0.1205,-0.2335,-0.1215
0.182,0.59,0.408,-0.3855,-0.113,0.499,1.0555,0.8185,0.809,0.912,0.912,0.8635,-0.1205,-0.236,-0.123
0.1645,0.5715,0.4065,-0.368,-0.121,0.489,1.0505,0.817,0.8035,0.9065,0.904,0.8585,-0.1195,-0.2355,-0.1195
0.1695,0.5755,0.406,-0.3725,-0.118,0.491,1.059,0.8215,0.8065,0.9075,0.9065,0.859,-0.123,-0.2345,-0.125
0.1625,0.562,0.3995,-0.362,-0.1185,0.481,1.0545,0.816,0.8005,0.9015,0.9005,0.853,-0.1235,-0.261,-0.1215
0.1545,0.547,0.3925,-0.3505,-0.119,0.47,1.048,0.813,0.795,0.899,0.896,0.8525,-0.1185,-0.265,-0.117
0.1575,0.55,0.393,-0.3535,-0.118,0.472,1.0525,0.814,0.796,0.8965,0.8945,0.8485,-0.122,-0.2595,-0.1195
0.163,0.5535,0.3905,-0.358,-0.114,0.472,1.057,0.8185,0.7985,0.901,0.896,0.8515,-0.1235,-0.257,-0.121
0.1685,0.556,0.3875,-0.362,-0.1095,0.472,1.0625,0.8255,0.805,0.9075,0.9015,0.8595,-0.124,-0.2525,-0.1215
0.165,0.5515,0.386,-0.358,-0.1105,0.469,1.064,0.826,0.804,0.905,0.9005,0.8565,-0.126,-0.259,-0.121
0.164,0.547,0.383,-0.3555,-0.1095,0.4655,1.0655,0.8275,0.804,0.9075,0.902,0.86,-0.1225,-0.2595,-0.1195
0.1685,0.555,0.3865,-0.3615,-0.109,0.471,1.0685,0.829,0.8045,0.908,0.9035,0.86,-0.1245,-0.2525,-0.1175
0.17,0.5595,0.3895,-0.3645,-0.1095,0.4745,1.071,0.833,0.8055,0.9085,0.902,0.8585,-0.126,-0.2515,-0.114
0.1645,0.5575,0.3925,-0.361,-0.114,0.4755,1.0705,0.8315,0.804,0.908,0.9,0.858,-0.124,-0.25,-0.112
0.168,0.5555,0.387,-0.3615,-0.1095,0.4715,1.0675,0.8305,0.802,0.907,0.9005,0.8585,-0.122,-0.252,-0.113
0.164,0.549,0.385,-0.3565,-0.1105,0.467,1.068,0.832,0.8045,0.908,0.9015,0.858,-0.122,-0.255,-0.116
0.161,0.541,0.38,-0.3505,-0.11,0.4605,1.0615,0.8255,0.795,0.9,0.8945,0.853,-0.1185,-0.26,-0.113
0.1555,0.538,0.383,-0.3465,-0.114,0.4605,1.054,0.8225,0.789,0.893,0.889,0.85,-0.113,-0.265,-0.1095
0.153,0.537,0.384,-0.345,-0.1155,0.461,1.05,0.818,0.7885,0.8905,0.8875,0.8475,-0.1135,-0.2615,-0.109
0.153,0.5235,0.3705,-0.338,-0.1085,0.4475,1.0565,0.824,0.7955,0.8985,0.8955,0.8555,-0.1145,-0.272,-0.1105
0.1645,0.53,0.3655,-0.347,-0.1005,0.448,1.058,0.83,0.799,0.901,0.898,0.858,-0.1135,-0.274,-0.1095
0.166,0.547,0.381,-0.3565,-0.1075,0.4645,1.0515,0.8255,0.796,0.899,0.8985,0.8585,-0.111,-0.269,-0.1085
0.186,0.55,0.364,-0.3675,-0.089,0.457,1.0385,0.8135,0.7885,0.8935,0.8905,0.852,-0.11,-0.274,-0.1085
0.233,0.556,0.323,-0.394,-0.045,0.4395,1.0215,0.8015,0.7745,0.8795,0.878,0.8385,-0.1095,-0.267,-0.107
0.1665,0.562,0.395,-0.364,-0.1145,0.4785,1.0415,0.8255,0.798,0.9035,0.9025,0.8635,-0.1065,-0.261,-0.1075
0.14,0.563,0.423,-0.351,-0.1415,0.493,1.05,0.8325,0.807,0.9125,0.9115,0.8725,-0.1055,-0.26,-0.107
0.1725,0.5565,0.384,-0.364,-0.1055,0.4705,1.0405,0.8215,0.7955,0.9025,0.9,0.8625,-0.105,-0.258,-0.1075
0.1585,0.5355,0.377,-0.347,-0.109,0.4565,1.038,0.82,0.7955,0.9045,0.9025,0.8645,-0.101,-0.2765,-0.104
0.162,0.526,0.3645,-0.344,-0.1015,0.4455,1.0365,0.819,0.7935,0.901,0.9025,0.8605,-0.099,-0.282,-0.102
0.162,0.5395,0.3775,-0.3505,-0.108,0.459,1.04,0.822,0.7955,0.9015,0.897,0.862,-0.101,-0.26,-0.105
0.167,0.546,0.379,-0.3565,-0.106,0.463,1.0405,0.82,0.793,0.9015,0.897,0.864,-0.1,-0.2625,-0.106
0.1705,0.5455,0.3755,-0.3575,-0.1025,0.4605,1.0375,0.819,0.791,0.9005,0.8975,0.862,-0.097,-0.271,-0.1015
0.1685,0.5435,0.3755,-0.3555,-0.1035,0.46,1.0345,0.8135,0.7895,0.899,0.895,0.8585,-0.0965,-0.27,-0.098
0.178,0.554,0.376,-0.3655,-0.099,0.465,1.0275,0.8105,0.7915,0.902,0.898,0.862,-0.096,-0.266,-0.095
0.1855,0.564,0.379,-0.3745,-0.097,0.4715,1.013,0.8055,0.7915,0.905,0.9015,0.865,-0.093,-0.2615,-0.091
0.1905,0.5695,0.3785,-0.38,-0.094,0.4745,1.005,0.8045,0.7945,0.9075,0.907,0.868,-0.09,-0.264,-0.091
0.191,0.5655,0.3745,-0.378,-0.092,0.4705,0.9885,0.797,0.7885,0.902,0.9,0.864,-0.086,-0.264,-0.0845
0.1825,0.5585,0.376,-0.3705,-0.0965,0.4675,0.9745,0.7825,0.7795,0.894,0.8925,0.857,-0.083,-0.267,-0.0835
0.18,0.5605,0.3805,-0.37,-0.1,0.4705,0.978,0.7845,0.7815,0.8955,0.896,0.861,-0.0805,-0.2645,-0.0835
0.176,0.556,0.3795,-0.3655,-0.102,0.468,0.993,0.79,0.783,0.896,0.8965,0.859,-0.084,-0.261,-0.085
0.174,0.5555,0.3815,-0.3645,-0.104,0.469,1.003,0.794,0.7835,0.8965,0.8945,0.858,-0.086,-0.2625,-0.088
0.17,0.55,0.38,-0.36,-0.105,0.465,1.0095,0.7935,0.779,0.892,0.89,0.8545,-0.0845,-0.261,-0.0875
0.1665,0.5465,0.38,-0.3565,-0.1065,0.4635,1.0215,0.797,0.7765,0.8905,0.8885,0.8505,-0.0875,-0.2585,-0.0935
0.1705,0.555,0.385,-0.3625,-0.107,0.47,1.019,0.799,0.781,0.8955,0.8945,0.855,-0.0885,-0.2525,-0.0925
0.172,0.561,0.3885,-0.366,-0.108,0.475,1.0145,0.799,0.787,0.8995,0.899,0.8575,-0.091,-0.2535,-0.0905
0.1735,0.564,0.3905,-0.3685,-0.1085,0.4775,1.0165,0.803,0.791,0.9035,0.9,0.8595,-0.0925,-0.2495,-0.0885
0.176,0.5705,0.3945,-0.373,-0.1095,0.483,1.0225,0.8055,0.793,0.904,0.903,0.861,-0.0935,-0.2375,-0.092
0.1685,0.559,0.3905,-0.3635,-0.111,0.475,1.007,0.793,0.783,0.8965,0.894,0.854,-0.0915,-0.247,-0.091
0.1605,0.546,0.3855,-0.353,-0.1125,0.466,0.992,0.778,0.7715,0.887,0.884,0.847,-0.087,-0.2625,-0.088
0.172,0.559,0.387,-0.3655,-0.1075,0.4735,1.0035,0.78,0.773,0.887,0.886,0.849,-0.088,-0.266,-0.0935
0.175,0.557,0.382,-0.3655,-0.1035,0.4695,1.003,0.778,0.7705,0.8855,0.8825,0.849,-0.0855,-0.265,-0.0935
0.175,0.5585,0.3835,-0.3665,-0.104,0.4715,1.006,0.7825,0.7725,0.8875,0.882,0.851,-0.086,-0.259,-0.0925
0.183,0.569,0.386,-0.3755,-0.1015,0.4775,1.01,0.7875,0.777,0.892,0.887,0.8555,-0.0855,-0.257,-0.0925
0.183,0.5705,0.3875,-0.3765,-0.1025,0.4795,1.0075,0.786,0.7785,0.89,0.8885,0.856,-0.084,-0.2485,-0.091
0.1825,0.5755,0.393,-0.3785,-0.1055,0.4845,1.0055,0.7835,0.778,0.8895,0.8885,0.8545,-0.085,-0.2405,-0.0905
0.188,0.5785,0.391,-0.383,-0.1015,0.485,1.0,0.78,0.776,0.889,0.8905,0.8605,-0.077,-0.2465,-0.0865
0.1925,0.5785,0.386,-0.3855,-0.0965,0.4825,0.9955,0.78,0.772,0.8795,0.878,0.8515,-0.082,-0.252,-0.081
0.186,0.5785,0.393,-0.382,-0.1035,0.486,0.9855,0.77,0.7685,0.8845,0.882,0.8495,-0.078,-0.248,-0.0795
0.186,0.5855,0.3995,-0.3855,-0.1065,0.4925,0.9795,0.767,0.771,0.8915,0.8935,0.861,-0.067,-0.238,-0.0765
0.186,0.586,0.4,-0.386,-0.107,0.4935,0.9775,0.769,0.7695,0.887,0.887,0.856,-0.071,-0.2315,-0.075
0.1765,0.581,0.4045,-0.3785,-0.114,0.493,0.9705,0.762,0.7655,0.8855,0.887,0.8545,-0.0685,-0.2285,-0.0765
0.187,0.5935,0.406,-0.39,-0.1095,0.5,0.974,0.766,0.772,0.889,0.8905,0.8595,-0.0695,-0.2285,-0.08
0.206,0.616,0.41,-0.411,-0.102,0.5135,0.984,0.7745,0.7805,0.8975,0.899,0.8675,-0.072,-0.2215,-0.084
0.204,0.6135,0.4095,-0.4085,-0.103,0.512,0.979,0.7715,0.778,0.896,0.8975,0.8655,-0.0715,-0.2255,-0.083
0.1955,0.607,0.4115,-0.401,-0.108,0.5095,0.97,0.764,0.774,0.891,0.892,0.8625,-0.0695,-0.2315,-0.081
0.1945,0.6075,0.4125,-0.401,-0.109,0.5105,0.9685,0.7635,0.7755,0.894,0.8955,0.863,-0.0685,-0.218,-0.0805
0.197,0.6085,0.411,-0.4025,-0.107,0.51,0.972,0.7655,0.7785,0.898,0.8975,0.8635,-0.0695,-0.22,-0.081
