i,ii,iii,avr,avl,avf,v1,v2,v3,v4,v5,v6,vx,vy,vz
-1.453,-1.29,0.163,1.3715,-0.8075,-0.5635,0.117,0.075,-0.0905,-0.1265,-0.459,-0.445,-0.1505,-0.2195,-0.201
-1.46,-1.2855,0.174,1.373,-0.817,-0.5555,0.115,0.07,-0.0925,-0.1295,-0.4635,-0.445,-0.1515,-0.204,-0.1885
-1.4655,-1.2905,0.175,1.378,-0.82,-0.5575,0.1215,0.076,-0.0875,-0.1265,-0.462,-0.443,-0.1525,-0.21,-0.1905
-1.46,-1.2985,0.162,1.379,-0.811,-0.568,0.123,0.078,-0.084,-0.125,-0.4615,-0.443,-0.1525,-0.2305,-0.201
-1.466,-1.304,0.162,1.385,-0.8135,-0.571,0.121,0.0795,-0.0835,-0.127,-0.4655,-0.447,-0.1515,-0.228,-0.194
-1.4715,-1.3065,0.165,1.3895,-0.818,-0.5705,0.1255,0.0815,-0.08,-0.127,-0.4635,-0.4485,-0.153,-0.219,-0.198
-1.4585,-1.2905,0.1675,1.3745,-0.813,-0.561,0.1265,0.086,-0.075,-0.1235,-0.462,-0.4455,-0.1525,-0.2085,-0.1995
-1.4495,-1.278,0.172,1.364,-0.8105,-0.5525,0.125,0.086,-0.077,-0.1265,-0.4675,-0.451,-0.156,-0.21,-0.2025
-1.4535,-1.277,0.1765,1.365,-0.8145,-0.55,0.127,0.0825,-0.0825,-0.132,-0.4725,-0.4545,-0.1595,-0.2095,-0.204
-1.459,-1.2815,0.1775,1.3705,-0.8185,-0.5515,0.1295,0.086,-0.0805,-0.1315,-0.472,-0.454,-0.159,-0.2015,-0.1995
-1.47,-1.283,0.187,1.3765,-0.8285,-0.548,0.1275,0.0855,-0.081,-0.1325,-0.4755,-0.459,-0.16,-0.2045,-0.203
-1.4685,-1.2855,0.183,1.3775,-0.8255,-0.551,0.129,0.0885,-0.0795,-0.131,-0.4775,-0.461,-0.159,-0.209,-0.205
-1.47,-1.2855,0.1845,1.378,-0.827,-0.5505,0.13,0.09,-0.0775,-0.1315,-0.479,-0.463,-0.161,-0.203,-0.2095
-1.4795,-1.2815,0.198,1.3805,-0.8385,-0.5415,0.1255,0.086,-0.082,-0.1365,-0.486,-0.4675,-0.163,-0.1985,-0.2145
-1.471,-1.281,0.19,1.376,-0.83,-0.5455,0.127,0.0875,-0.0815,-0.138,-0.4885,-0.469,-0.1645,-0.2035,-0.2225
-1.4675,-1.278,0.19,1.373,-0.8285,-0.544,0.128,0.0925,-0.0765,-0.137,-0.486,-0.4645,-0.162,-0.211,-0.23
-1.4765,-1.2795,0.197,1.378,-0.8365,-0.541,0.1335,0.094,-0.0755,-0.1355,-0.4855,-0.465,-0.1655,-0.2125,-0.226
-1.4805,-1.28,0.2005,1.38,-0.8405,-0.5395,0.1395,0.096,-0.0745,-0.1355,-0.486,-0.4635,-0.1715,-0.203,-0.222
-1.473,-1.281,0.192,1.377,-0.8325,-0.544,0.138,0.1,-0.075,-0.136,-0.4865,-0.462,-0.1695,-0.2025,-0.217
-1.469,-1.285,0.184,1.377,-0.826,-0.5505,0.137,0.1015,-0.074,-0.1345,-0.488,-0.461,-0.1685,-0.2075,-0.223
-1.477,-1.2875,0.1895,1.3825,-0.833,-0.5485,0.14,0.1045,-0.072,-0.1345,-0.4855,-0.4575,-0.1705,-0.2075,-0.228
-1.4815,-1.2865,0.1945,1.384,-0.8375,-0.5455,0.1395,0.1035,-0.0745,-0.1375,-0.487,-0.4585,-0.169,-0.1985,-0.224
-1.4775,-1.2855,0.1915,1.3815,-0.834,-0.547,0.1365,0.102,-0.0755,-0.1395,-0.4885,-0.4575,-0.163,-0.1935,-0.234
-1.4785,-1.2905,0.188,1.3845,-0.833,-0.551,0.1375,0.106,-0.0745,-0.1405,-0.488,-0.456,-0.1635,-0.197,-0.2275
-1.4785,-1.287,0.191,1.3825,-0.8345,-0.5475,0.139,0.109,-0.0725,-0.139,-0.4875,-0.453,-0.164,-0.197,-0.222
-1.466,-1.27,0.1965,1.368,-0.831,-0.5365,0.145,0.11,-0.0705,-0.137,-0.485,-0.451,-0.164,-0.187,-0.219
-1.4675,-1.27,0.1975,1.369,-0.8325,-0.536,0.1435,0.11,-0.071,-0.1405,-0.4895,-0.4545,-0.1645,-0.19,-0.225
-1.478,-1.281,0.1965,1.3795,-0.837,-0.542,0.1355,0.106,-0.0755,-0.1465,-0.4975,-0.462,-0.164,-0.195,-0.232
-1.479,-1.2775,0.201,1.378,-0.8395,-0.538,0.139,0.105,-0.073,-0.148,-0.4995,-0.466,-0.168,-0.1865,-0.2245
-1.4695,-1.267,0.2025,1.368,-0.836,-0.532,0.1415,0.1045,-0.075,-0.1505,-0.501,-0.465,-0.1695,-0.187,-0.225
-1.465,-1.2615,0.2035,1.3635,-0.834,-0.529,0.1395,0.108,-0.075,-0.1515,-0.501,-0.463,-0.166,-0.187,-0.2255
-1.469,-1.2645,0.2045,1.367,-0.8365,-0.5295,0.1415,0.1115,-0.07,-0.1525,-0.5015,-0.4625,-0.164,-0.185,-0.2305
-1.4775,-1.2675,0.2105,1.3725,-0.8435,-0.528,0.1425,0.1085,-0.0745,-0.1575,-0.508,-0.469,-0.17,-0.176,-0.2285
-1.4785,-1.2585,0.22,1.3685,-0.849,-0.519,0.1485,0.1115,-0.0715,-0.157,-0.5065,-0.469,-0.173,-0.172,-0.2275
-1.4635,-1.2515,0.212,1.3575,-0.8375,-0.5195,0.146,0.1135,-0.0695,-0.1565,-0.5055,-0.4665,-0.168,-0.1745,-0.2305
-1.459,-1.2525,0.2065,1.356,-0.8325,-0.5225,0.1465,0.111,-0.0725,-0.161,-0.511,-0.4695,-0.174,-0.1645,-0.227
-1.4625,-1.2515,0.211,1.357,-0.8365,-0.52,0.146,0.108,-0.077,-0.1675,-0.5165,-0.4725,-0.176,-0.16,-0.226
-1.4655,-1.2515,0.214,1.3585,-0.8395,-0.5185,0.138,0.105,-0.0805,-0.1695,-0.5185,-0.4735,-0.1725,-0.165,-0.2245
-1.4705,-1.253,0.218,1.362,-0.844,-0.5175,0.1405,0.105,-0.08,-0.17,-0.5185,-0.474,-0.176,-0.1565,-0.228
-1.4655,-1.2425,0.223,1.354,-0.844,-0.5095,0.1415,0.108,-0.077,-0.1685,-0.518,-0.4715,-0.173,-0.151,-0.2315
-1.4645,-1.2355,0.229,1.35,-0.8465,-0.503,0.141,0.1075,-0.0765,-0.1685,-0.5175,-0.4695,-0.1715,-0.151,-0.226
-1.4825,-1.2485,0.234,1.3655,-0.858,-0.507,0.131,0.099,-0.0865,-0.1795,-0.526,-0.476,-0.1735,-0.147,-0.2225
-1.4995,-1.2445,0.255,1.3715,-0.8765,-0.4945,0.127,0.0955,-0.0885,-0.183,-0.5295,-0.476,-0.1775,-0.145,-0.224
-1.5005,-1.227,0.2735,1.3635,-0.887,-0.4765,0.1425,0.102,-0.0825,-0.1805,-0.528,-0.473,-0.1805,-0.1355,-0.2265
-1.49,-1.217,0.273,1.3535,-0.881,-0.472,0.1375,0.0965,-0.0865,-0.1885,-0.5345,-0.477,-0.179,-0.1295,-0.2225
-1.4885,-1.2145,0.274,1.3515,-0.881,-0.47,0.131,0.0895,-0.0935,-0.1985,-0.5415,-0.4825,-0.1825,-0.1235,-0.2205
-1.4965,-1.216,0.2805,1.3565,-0.8885,-0.4675,0.135,0.092,-0.097,-0.203,-0.547,-0.486,-0.1855,-0.128,-0.231
-1.49,-1.206,0.2845,1.348,-0.887,-0.4605,0.1275,0.086,-0.1045,-0.2085,-0.553,-0.488,-0.187,-0.1275,-0.235
-1.485,-1.195,0.29,1.34,-0.887,-0.4525,0.1245,0.0835,-0.1085,-0.214,-0.554,-0.486,-0.186,-0.115,-0.23
-1.4975,-1.192,0.3055,1.345,-0.9015,-0.443,0.121,0.0785,-0.1145,-0.222,-0.56,-0.4895,-0.19,-0.112,-0.2135
-1.4995,-1.197,0.3025,1.348,-0.9005,-0.447,0.1205,0.072,-0.1215,-0.2305,-0.5655,-0.4955,-0.1915,-0.101,-0.2035
-1.4975,-1.1955,0.3015,1.3465,-0.8995,-0.447,0.12,0.072,-0.1225,-0.2345,-0.568,-0.4975,-0.19,-0.0955,-0.213
-1.488,-1.181,0.307,1.3345,-0.897,-0.437,0.1235,0.074,-0.1205,-0.2315,-0.566,-0.493,-0.1955,-0.093,-0.207
-1.4755,-1.1715,0.304,1.3235,-0.8895,-0.433,0.1215,0.0735,-0.1215,-0.233,-0.5655,-0.49,-0.193,-0.1005,-0.218
-1.4805,-1.1605,0.32,1.3205,-0.9,-0.42,0.1105,0.062,-0.1345,-0.2435,-0.5735,-0.4945,-0.194,-0.094,-0.2215
-1.487,-1.157,0.33,1.3225,-0.9085,-0.4135,0.113,0.053,-0.1415,-0.2525,-0.5785,-0.4965,-0.1975,-0.08,-0.2225
-1.4955,-1.1595,0.336,1.3275,-0.9155,-0.4115,0.1085,0.0505,-0.1445,-0.2575,-0.5805,-0.498,-0.199,-0.076,-0.226
-1.495,-1.163,0.332,1.329,-0.9135,-0.415,0.101,0.044,-0.155,-0.2665,-0.5885,-0.501,-0.1985,-0.0535,-0.193
-1.491,-1.162,0.329,1.3265,-0.91,-0.416,0.0955,0.034,-0.166,-0.278,-0.5985,-0.506,-0.2015,-0.0495,-0.188
-1.4935,-1.1525,0.341,1.323,-0.917,-0.4055,0.097,0.0315,-0.1715,-0.2825,-0.601,-0.5065,-0.2065,-0.052,-0.1885
-1.505,-1.15,0.355,1.3275,-0.9295,-0.3975,0.0925,0.025,-0.1775,-0.289,-0.606,-0.5075,-0.206,-0.0465,-0.1865
-1.5205,-1.1455,0.375,1.333,-0.9475,-0.385,0.0885,0.018,-0.183,-0.296,-0.607,-0.5075,-0.207,-0.0395,-0.1865
-1.531,-1.133,0.3985,1.332,-0.9645,-0.367,0.0925,0.0165,-0.1885,-0.3025,-0.6105,-0.5065,-0.209,-0.0255,-0.1805
-1.527,-1.12,0.407,1.3235,-0.967,-0.356,0.087,0.008,-0.1935,-0.307,-0.6135,-0.508,-0.2075,-0.0105,-0.1745
-1.5155,-1.112,0.403,1.3135,-0.959,-0.354,0.0795,-0.0005,-0.202,-0.314,-0.619,-0.5125,-0.21,-0.0165,-0.1785
-1.5125,-1.1045,0.408,1.3085,-0.9605,-0.348,0.0705,-0.01,-0.2165,-0.329,-0.632,-0.5235,-0.216,-0.0165,-0.1705
-1.514,-1.0965,0.4175,1.3055,-0.9655,-0.3395,0.0645,-0.019,-0.225,-0.337,-0.635,-0.524,-0.2195,0.008,-0.1505
-1.519,-1.0895,0.4295,1.3045,-0.974,-0.33,0.0575,-0.0265,-0.232,-0.346,-0.6385,-0.526,-0.225,0.018,-0.1575
-1.521,-1.094,0.427,1.3075,-0.9735,-0.333,0.054,-0.037,-0.243,-0.358,-0.6475,-0.532,-0.2325,0.0105,-0.15
-1.5205,-1.0875,0.433,1.304,-0.9765,-0.327,0.054,-0.0435,-0.251,-0.3665,-0.651,-0.5295,-0.2315,0.0085,-0.1475
-1.513,-1.07,0.443,1.2915,-0.978,-0.313,0.045,-0.053,-0.2615,-0.375,-0.654,-0.525,-0.2265,0.021,-0.148
-1.5085,-1.062,0.4465,1.2855,-0.9775,-0.3075,0.036,-0.0605,-0.27,-0.383,-0.6575,-0.522,-0.224,0.0285,-0.128
-1.512,-1.055,0.4575,1.2835,-0.9845,-0.2985,0.03,-0.073,-0.2815,-0.3925,-0.6605,-0.5205,-0.2235,0.042,-0.113
-1.5015,-1.0415,0.4605,1.2715,-0.981,-0.2905,0.0185,-0.0855,-0.292,-0.4,-0.663,-0.52,-0.2205,0.0595,-0.108
-1.4935,-1.019,0.4745,1.2565,-0.984,-0.272,0.02,-0.086,-0.2945,-0.4025,-0.6595,-0.511,-0.2155,0.063,-0.1055
-1.4945,-1.008,0.4865,1.2515,-0.9905,-0.2605,0.0215,-0.0905,-0.301,-0.4065,-0.6575,-0.5035,-0.2165,0.0595,-0.1
-1.4935,-1.0015,0.492,1.2475,-0.9925,-0.2545,0.0125,-0.103,-0.313,-0.417,-0.6645,-0.5065,-0.2185,0.0635,-0.097
-1.493,-0.9965,0.497,1.2445,-0.995,-0.2495,0.001,-0.116,-0.3245,-0.4265,-0.67,-0.507,-0.216,0.075,-0.0835
-1.4985,-0.995,0.503,1.2465,-1.0005,-0.246,-0.006,-0.1235,-0.3335,-0.4345,-0.6725,-0.511,-0.2185,0.0805,-0.0775
-1.5,-0.9875,0.5125,1.2435,-1.006,-0.2375,-0.0115,-0.136,-0.346,-0.4455,-0.68,-0.516,-0.224,0.0905,-0.07
-1.503,-0.978,0.5245,1.2405,-1.0135,-0.2265,-0.0185,-0.148,-0.356,-0.453,-0.6835,-0.517,-0.2275,0.094,-0.0575
-1.521,-0.9785,0.5425,1.2495,-1.0315,-0.218,-0.0245,-0.159,-0.3685,-0.4635,-0.689,-0.5225,-0.2315,0.1115,-0.0565
-1.5285,-0.9735,0.555,1.251,-1.0415,-0.209,-0.0345,-0.1715,-0.382,-0.4735,-0.6955,-0.5255,-0.229,0.1325,-0.0475
-1.517,-0.9475,0.5695,1.2325,-1.043,-0.189,-0.047,-0.184,-0.3965,-0.4835,-0.7025,-0.528,-0.2265,0.1375,-0.039
-1.5115,-0.933,0.5785,1.2225,-1.045,-0.177,-0.0595,-0.2015,-0.4135,-0.4965,-0.712,-0.5325,-0.2295,0.1435,-0.0345
-1.5205,-0.9335,0.587,1.227,-1.0535,-0.173,-0.063,-0.2125,-0.4225,-0.5045,-0.715,-0.531,-0.2305,0.1505,-0.027
-1.513,-0.9205,0.5925,1.217,-1.0525,-0.164,-0.071,-0.22,-0.4315,-0.51,-0.7145,-0.5255,-0.225,0.159,-0.0205
-1.504,-0.909,0.595,1.2065,-1.049,-0.157,-0.0845,-0.2345,-0.446,-0.5215,-0.7215,-0.5275,-0.223,0.169,-0.0095
-1.491,-0.8955,0.596,1.193,-1.0435,-0.1495,-0.091,-0.248,-0.4565,-0.529,-0.7245,-0.5275,-0.2235,0.1705,-0.0025
-1.4875,-0.887,0.6005,1.1875,-1.0435,-0.1435,-0.0965,-0.256,-0.4645,-0.533,-0.723,-0.5255,-0.2235,0.1765,0.0015
-1.499,-0.8875,0.611,1.1935,-1.055,-0.138,-0.104,-0.27,-0.4795,-0.544,-0.732,-0.53,-0.226,0.1865,0.015
-1.4865,-0.8735,0.6135,1.18,-1.05,-0.1295,-0.1175,-0.2795,-0.4895,-0.5495,-0.7305,-0.526,-0.22,0.189,0.023
-1.4895,-0.864,0.6255,1.1765,-1.0575,-0.119,-0.126,-0.288,-0.4955,-0.5535,-0.7295,-0.522,-0.2165,0.2055,0.0315
-1.4935,-0.8535,0.64,1.1735,-1.0665,-0.107,-0.1305,-0.2985,-0.505,-0.5575,-0.73,-0.5195,-0.2165,0.21,0.0345
-1.4885,-0.847,0.642,1.1675,-1.065,-0.102,-0.1335,-0.3035,-0.51,-0.559,-0.725,-0.5145,-0.212,0.209,0.036
-1.4815,-0.8455,0.636,1.1635,-1.0585,-0.1045,-0.136,-0.308,-0.514,-0.5605,-0.7245,-0.5105,-0.209,0.2035,0.0435
-1.475,-0.841,0.634,1.158,-1.054,-0.1035,-0.136,-0.3135,-0.52,-0.562,-0.724,-0.506,-0.2055,0.2065,0.0485
-1.48,-0.842,0.638,1.161,-1.0585,-0.102,-0.142,-0.3215,-0.5245,-0.5635,-0.721,-0.5035,-0.203,0.2225,0.0625
-1.4785,-0.8415,0.637,1.16,-1.0575,-0.102,-0.1525,-0.3255,-0.5275,-0.563,-0.7185,-0.4975,-0.195,0.22,0.07
-1.47,-0.835,0.635,1.1525,-1.052,-0.0995,-0.1575,-0.3315,-0.5315,-0.5635,-0.7185,-0.496,-0.1925,0.218,0.0725
-1.456,-0.824,0.632,1.14,-1.0435,-0.096,-0.1625,-0.333,-0.532,-0.56,-0.713,-0.493,-0.1915,0.214,0.066
-1.463,-0.8315,0.6315,1.147,-1.047,-0.0995,-0.1645,-0.3325,-0.531,-0.5555,-0.709,-0.4885,-0.1855,0.2135,0.065
-1.4795,-0.847,0.632,1.163,-1.0555,-0.107,-0.162,-0.3345,-0.5305,-0.555,-0.7085,-0.49,-0.187,0.2095,0.0725
-1.481,-0.8525,0.6285,1.1665,-1.0545,-0.1115,-0.1605,-0.3325,-0.5275,-0.5475,-0.7,-0.4805,-0.1825,0.1985,0.0765
-1.4805,-0.856,0.6245,1.1685,-1.0525,-0.1155,-0.169,-0.332,-0.525,-0.5405,-0.691,-0.4735,-0.1755,0.1985,0.0785
-1.4755,-0.8635,0.6125,1.1695,-1.0435,-0.1255,-0.1635,-0.3285,-0.5235,-0.535,-0.684,-0.469,-0.1715,0.192,0.069
-1.474,-0.8755,0.598,1.1745,-1.0355,-0.1385,-0.1605,-0.3275,-0.52,-0.53,-0.676,-0.4625,-0.1675,0.181,0.0795
-1.476,-0.8845,0.5915,1.18,-1.0335,-0.146,-0.1695,-0.3265,-0.5155,-0.524,-0.6685,-0.4595,-0.1635,0.1735,0.079
-1.468,-0.887,0.5815,1.1775,-1.0245,-0.1525,-0.1665,-0.3235,-0.51,-0.5145,-0.6605,-0.455,-0.156,0.1655,0.0755
-1.4755,-0.9015,0.5735,1.1885,-1.024,-0.1635,-0.1635,-0.3175,-0.5025,-0.5055,-0.6545,-0.455,-0.1565,0.1535,0.077
-1.4735,-0.9125,0.561,1.193,-1.017,-0.1755,-0.161,-0.318,-0.4995,-0.498,-0.6485,-0.453,-0.157,0.139,0.0665
-1.4595,-0.9155,0.544,1.1875,-1.0015,-0.1855,-0.159,-0.316,-0.494,-0.49,-0.641,-0.4495,-0.153,0.133,0.0655
-1.4685,-0.928,0.5405,1.1985,-1.0045,-0.1935,-0.156,-0.301,-0.4805,-0.4755,-0.6305,-0.4455,-0.151,0.1255,0.0595
-1.464,-0.9365,0.528,1.2,-0.9955,-0.204,-0.152,-0.292,-0.4715,-0.464,-0.6195,-0.441,-0.1445,0.1185,0.058
-1.4615,-0.949,0.512,1.2055,-0.9865,-0.2185,-0.1505,-0.2885,-0.465,-0.4545,-0.614,-0.442,-0.1435,0.1045,0.061
-1.4655,-0.962,0.5035,1.214,-0.9845,-0.229,-0.1465,-0.2825,-0.455,-0.4415,-0.606,-0.438,-0.1425,0.09,0.057
-1.4595,-0.9665,0.493,1.213,-0.976,-0.2365,-0.143,-0.2725,-0.4435,-0.429,-0.5945,-0.431,-0.1355,0.088,0.0515
-1.464,-0.974,0.49,1.219,-0.977,-0.2415,-0.1415,-0.2655,-0.4355,-0.4165,-0.586,-0.4285,-0.132,0.083,0.0485
-1.4625,-0.9895,0.473,1.226,-0.968,-0.258,-0.137,-0.26,-0.428,-0.4085,-0.5805,-0.427,-0.13,0.066,0.039
-1.4615,-0.9995,0.462,1.2305,-0.9615,-0.2685,-0.128,-0.252,-0.42,-0.402,-0.578,-0.429,-0.1325,0.0525,0.025
-1.46,-0.9985,0.4615,1.229,-0.9605,-0.268,-0.128,-0.247,-0.415,-0.3955,-0.575,-0.4295,-0.134,0.048,0.0195
-1.462,-1.015,0.447,1.239,-0.9545,-0.284,-0.1305,-0.2445,-0.4095,-0.387,-0.5705,-0.428,-0.1305,0.037,0.0205
-1.4745,-1.0345,0.44,1.2545,-0.957,-0.297,-0.1295,-0.2445,-0.407,-0.381,-0.5665,-0.4285,-0.129,0.0295,0.0175
-1.467,-1.0395,0.4275,1.2535,-0.947,-0.3055,-0.122,-0.236,-0.3965,-0.371,-0.559,-0.425,-0.128,0.0215,0.0105
-1.462,-1.0435,0.4185,1.253,-0.94,-0.3125,-0.1155,-0.2235,-0.383,-0.358,-0.551,-0.418,-0.1225,0.0155,0.0005
-1.4665,-1.0495,0.4175,1.258,-0.9415,-0.3155,-0.1245,-0.225,-0.3805,-0.353,-0.548,-0.418,-0.1175,0.0125,0.008
-1.4665,-1.0625,0.4045,1.2645,-0.9355,-0.329,-0.12,-0.22,-0.3735,-0.3445,-0.5445,-0.4165,-0.1175,0.0095,0.0265
-1.4665,-1.068,0.399,1.2675,-0.9325,-0.3345,-0.1115,-0.213,-0.367,-0.3375,-0.54,-0.415,-0.118,0.0115,0.025
-1.469,-1.07,0.3995,1.2695,-0.934,-0.335,-0.113,-0.21,-0.3635,-0.332,-0.5385,-0.4175,-0.1165,0.0005,0.0115
-1.47,-1.085,0.3855,1.2775,-0.9275,-0.3495,-0.1115,-0.205,-0.36,-0.327,-0.536,-0.4165,-0.115,-0.0185,0.0055
-1.4665,-1.096,0.371,1.2815,-0.9185,-0.362,-0.108,-0.2015,-0.3545,-0.3245,-0.5325,-0.417,-0.114,-0.0235,0.0095
-1.4675,-1.096,0.3715,1.2815,-0.9195,-0.362,-0.1035,-0.1945,-0.3485,-0.315,-0.5285,-0.4155,-0.1135,-0.028,0.0115
-1.4665,-1.099,0.368,1.283,-0.917,-0.365,-0.1015,-0.1955,-0.3475,-0.312,-0.53,-0.4205,-0.116,-0.0345,0.008
-1.469,-1.1095,0.3595,1.2895,-0.9135,-0.375,-0.1015,-0.195,-0.3435,-0.308,-0.5295,-0.4245,-0.1145,-0.0365,0.0025
-1.4655,-1.1105,0.3555,1.288,-0.91,-0.3775,-0.1,-0.184,-0.3335,-0.296,-0.519,-0.4165,-0.107,-0.041,0.0025
-1.467,-1.116,0.3505,1.2915,-0.9085,-0.3825,-0.1,-0.1805,-0.329,-0.293,-0.5175,-0.417,-0.108,-0.046,-0.0005
-1.4665,-1.1235,0.3425,1.295,-0.9045,-0.3905,-0.1005,-0.1805,-0.327,-0.292,-0.52,-0.42,-0.1075,-0.051,-0.0005
-1.4565,-1.1225,0.334,1.2895,-0.895,-0.394,-0.094,-0.1765,-0.322,-0.286,-0.5155,-0.417,-0.107,-0.0545,0.0035
-1.456,-1.126,0.3295,1.291,-0.8925,-0.398,-0.09,-0.173,-0.3185,-0.281,-0.513,-0.415,-0.1095,-0.061,-0.0055
-1.45,-1.128,0.322,1.289,-0.8855,-0.403,-0.091,-0.169,-0.3165,-0.277,-0.5085,-0.4125,-0.105,-0.066,-0.0075
-1.4575,-1.138,0.3195,1.2975,-0.888,-0.409,-0.091,-0.169,-0.315,-0.275,-0.506,-0.412,-0.1045,-0.066,-0.0075
-1.457,-1.1395,0.318,1.298,-0.887,-0.4105,-0.0895,-0.166,-0.3105,-0.27,-0.502,-0.41,-0.1035,-0.08,-0.013
-1.457,-1.152,0.3055,1.3045,-0.881,-0.423,-0.0925,-0.1645,-0.3095,-0.2675,-0.5005,-0.4105,-0.103,-0.0915,-0.011
-1.462,-1.163,0.299,1.3125,-0.8805,-0.432,-0.0925,-0.169,-0.3105,-0.268,-0.502,-0.411,-0.1045,-0.088,-0.013
-1.4585,-1.1585,0.3,1.3085,-0.879,-0.4295,-0.0835,-0.158,-0.303,-0.259,-0.4945,-0.4075,-0.1055,-0.0845,-0.017
-1.4635,-1.1665,0.297,1.315,-0.88,-0.4345,-0.0835,-0.157,-0.3005,-0.258,-0.495,-0.41,-0.108,-0.087,-0.0195
-1.4635,-1.173,0.291,1.318,-0.877,-0.441,-0.084,-0.159,-0.301,-0.26,-0.498,-0.412,-0.1095,-0.091,-0.02
-1.4585,-1.1745,0.2845,1.3165,-0.871,-0.4445,-0.08,-0.153,-0.2975,-0.2535,-0.4945,-0.411,-0.1105,-0.0935,-0.0155
-1.4515,-1.17,0.282,1.3105,-0.8665,-0.4435,-0.081,-0.1535,-0.2945,-0.25,-0.4935,-0.4095,-0.11,-0.103,-0.0215
-1.452,-1.177,0.2745,1.3145,-0.863,-0.451,-0.079,-0.151,-0.2915,-0.247,-0.4905,-0.409,-0.1095,-0.116,-0.031
-1.458,-1.184,0.274,1.321,-0.866,-0.455,-0.0775,-0.149,-0.2905,-0.2455,-0.491,-0.4095,-0.1105,-0.11,-0.0265
-1.4665,-1.1815,0.2855,1.324,-0.8755,-0.4475,-0.0715,-0.144,-0.2865,-0.241,-0.49,-0.4095,-0.113,-0.0975,-0.019
-1.4655,-1.1785,0.2875,1.322,-0.876,-0.445,-0.069,-0.1445,-0.285,-0.2405,-0.488,-0.412,-0.1145,-0.1,-0.0215
-1.4635,-1.177,0.286,1.3205,-0.8745,-0.4455,-0.073,-0.1455,-0.2855,-0.242,-0.4895,-0.4105,-0.1125,-0.101,-0.02
-1.4635,-1.1865,0.2765,1.325,-0.87,-0.455,-0.0725,-0.1405,-0.285,-0.2395,-0.4875,-0.409,-0.11,-0.1125,-0.0155
-1.459,-1.1875,0.2715,1.323,-0.865,-0.4575,-0.0665,-0.1385,-0.282,-0.2355,-0.485,-0.408,-0.1115,-0.1165,-0.0245
-1.4755,-1.1935,0.282,1.3345,-0.8785,-0.4555,-0.0705,-0.1425,-0.2835,-0.237,-0.488,-0.411,-0.1135,-0.1115,-0.035
-1.479,-1.198,0.281,1.3385,-0.88,-0.4585,-0.0785,-0.1475,-0.2875,-0.24,-0.49,-0.414,-0.114,-0.112,-0.032
-1.4665,-1.189,0.2775,1.328,-0.872,-0.4555,-0.0745,-0.1435,-0.2825,-0.2355,-0.4865,-0.4125,-0.112,-0.107,-0.0275
-1.474,-1.1895,0.284,1.332,-0.8785,-0.4525,-0.069,-0.1395,-0.279,-0.2325,-0.485,-0.414,-0.1125,-0.102,-0.0245
-1.4765,-1.1885,0.288,1.3325,-0.882,-0.45,-0.071,-0.1405,-0.2805,-0.231,-0.4865,-0.4145,-0.1115,-0.0985,-0.022
-1.4645,-1.189,0.2755,1.327,-0.87,-0.4565,-0.079,-0.142,-0.2815,-0.2315,-0.488,-0.4145,-0.1045,-0.106,-0.023
-1.463,-1.191,0.272,1.327,-0.8675,-0.459,-0.0775,-0.142,-0.28,-0.2305,-0.488,-0.413,-0.1045,-0.113,-0.0275
-1.4685,-1.1905,0.2775,1.3295,-0.873,-0.4565,-0.073,-0.142,-0.2815,-0.2315,-0.489,-0.415,-0.107,-0.1145,-0.026
-1.453,-1.1855,0.2675,1.319,-0.86,-0.459,-0.0745,-0.1445,-0.2845,-0.2345,-0.492,-0.4175,-0.1065,-0.12,-0.024
-1.444,-1.183,0.2605,1.3135,-0.852,-0.461,-0.0765,-0.1435,-0.2845,-0.233,-0.4895,-0.4145,-0.1045,-0.1165,-0.019
-1.455,-1.1985,0.257,1.327,-0.856,-0.4705,-0.0795,-0.146,-0.2875,-0.2355,-0.491,-0.4165,-0.0975,-0.117,-0.0175
-1.461,-1.2,0.2615,1.3305,-0.861,-0.469,-0.084,-0.15,-0.2915,-0.238,-0.4945,-0.418,-0.0925,-0.118,-0.0165
-1.458,-1.1935,0.2645,1.3255,-0.861,-0.464,-0.0775,-0.142,-0.2855,-0.2315,-0.486,-0.412,-0.0935,-0.1115,-0.014
-1.458,-1.19,0.268,1.324,-0.863,-0.4605,-0.075,-0.1385,-0.281,-0.2295,-0.485,-0.4075,-0.0895,-0.1095,-0.017
-1.4695,-1.1865,0.283,1.328,-0.876,-0.4515,-0.075,-0.138,-0.278,-0.229,-0.483,-0.4055,-0.0875,-0.106,-0.013
-1.4775,-1.1915,0.286,1.3345,-0.8815,-0.4525,-0.0725,-0.1335,-0.2755,-0.2255,-0.4805,-0.403,-0.0885,-0.111,-0.0175
-1.48,-1.199,0.281,1.3395,-0.8805,-0.4585,-0.075,-0.1385,-0.279,-0.229,-0.487,-0.4065,-0.0905,-0.114,-0.0205
-1.4815,-1.2095,0.272,1.3455,-0.8765,-0.4685,-0.0765,-0.142,-0.2805,-0.2325,-0.4895,-0.412,-0.0935,-0.1195,-0.025
-1.4555,-1.1905,0.265,1.323,-0.86,-0.4625,-0.074,-0.1355,-0.2755,-0.228,-0.4855,-0.41,-0.0945,-0.127,-0.0275
-1.441,-1.1725,0.2685,1.3065,-0.854,-0.452,-0.068,-0.133,-0.271,-0.222,-0.482,-0.4095,-0.0995,-0.123,-0.023
-1.453,-1.1815,0.2715,1.317,-0.862,-0.455,-0.071,-0.1375,-0.275,-0.226,-0.4875,-0.416,-0.102,-0.1185,-0.024
-1.461,-1.1875,0.273,1.3245,-0.867,-0.457,-0.075,-0.1405,-0.2775,-0.229,-0.4905,-0.4195,-0.105,-0.12,-0.024
-1.4605,-1.1865,0.2735,1.3235,-0.867,-0.456,-0.076,-0.138,-0.2745,-0.2245,-0.4875,-0.418,-0.105,-0.1185,-0.0235
-1.4485,-1.1755,0.273,1.312,-0.8605,-0.451,-0.071,-0.133,-0.273,-0.2205,-0.484,-0.413,-0.1045,-0.1155,-0.019
-1.447,-1.1775,0.27,1.3125,-0.8585,-0.4535,-0.0655,-0.133,-0.2745,-0.2215,-0.4855,-0.414,-0.1095,-0.127,-0.023
-1.455,-1.183,0.272,1.319,-0.863,-0.4555,-0.0685,-0.135,-0.276,-0.2235,-0.488,-0.4175,-0.109,-0.123,-0.021
-1.456,-1.186,0.27,1.321,-0.863,-0.4575,-0.074,-0.1385,-0.2755,-0.224,-0.488,-0.414,-0.1015,-0.114,-0.015
-1.453,-1.1875,0.2655,1.3205,-0.859,-0.461,-0.0725,-0.134,-0.274,-0.222,-0.4845,-0.411,-0.0975,-0.123,-0.0295
-1.453,-1.185,0.268,1.319,-0.86,-0.4585,-0.07,-0.1305,-0.272,-0.2185,-0.4845,-0.4085,-0.0975,-0.1235,-0.037
-1.447,-1.185,0.262,1.316,-0.854,-0.461,-0.076,-0.135,-0.2745,-0.221,-0.486,-0.4095,-0.0945,-0.117,-0.015
-1.4475,-1.1855,0.262,1.3165,-0.8545,-0.4615,-0.073,-0.1345,-0.275,-0.221,-0.485,-0.4065,-0.0965,-0.1225,-0.008
-1.448,-1.1815,0.266,1.315,-0.857,-0.4575,-0.0695,-0.1345,-0.274,-0.2215,-0.4845,-0.4035,-0.097,-0.124,-0.019
-1.4545,-1.1905,0.2635,1.3225,-0.8585,-0.4635,-0.069,-0.135,-0.277,-0.226,-0.487,-0.407,-0.0955,-0.1215,-0.0155
-1.4655,-1.2035,0.262,1.3345,-0.8635,-0.4705,-0.0735,-0.1395,-0.28,-0.2265,-0.489,-0.407,-0.095,-0.124,-0.0145
-1.4495,-1.189,0.2605,1.319,-0.8545,-0.464,-0.077,-0.139,-0.2845,-0.231,-0.49,-0.408,-0.095,-0.122,-0.0155
-1.4365,-1.1775,0.258,1.3065,-0.8465,-0.4595,-0.0685,-0.1345,-0.278,-0.224,-0.484,-0.401,-0.0925,-0.1195,-0.013
-1.4415,-1.183,0.258,1.312,-0.8495,-0.462,-0.067,-0.136,-0.2695,-0.2175,-0.4755,-0.3965,-0.089,-0.1295,-0.0135
-1.449,-1.1885,0.26,1.319,-0.8545,-0.464,-0.0715,-0.1395,-0.2755,-0.2235,-0.479,-0.403,-0.0925,-0.126,-0.016
-1.4525,-1.1955,0.257,1.324,-0.8545,-0.469,-0.074,-0.138,-0.2765,-0.224,-0.4815,-0.409,-0.0935,-0.1215,-0.0175
-1.461,-1.199,0.262,1.33,-0.861,-0.4685,-0.075,-0.138,-0.279,-0.226,-0.487,-0.419,-0.0995,-0.1235,-0.0195
-1.461,-1.195,0.266,1.328,-0.8635,-0.464,-0.0765,-0.14,-0.279,-0.2265,-0.487,-0.418,-0.1,-0.1225,-0.018
-1.4525,-1.185,0.267,1.319,-0.8595,-0.459,-0.075,-0.137,-0.2755,-0.2255,-0.484,-0.4175,-0.1005,-0.1195,-0.015
-1.456,-1.1885,0.267,1.322,-0.861,-0.4605,-0.0745,-0.139,-0.279,-0.2265,-0.488,-0.4205,-0.103,-0.1195,-0.02
-1.452,-1.193,0.259,1.3225,-0.855,-0.4665,-0.0765,-0.138,-0.279,-0.226,-0.4875,-0.418,-0.101,-0.1235,-0.0235
-1.452,-1.191,0.261,1.3215,-0.856,-0.465,-0.0745,-0.136,-0.2775,-0.223,-0.486,-0.4155,-0.102,-0.115,-0.0225
-1.4605,-1.1945,0.266,1.3275,-0.863,-0.464,-0.0755,-0.136,-0.278,-0.2225,-0.488,-0.413,-0.0995,-0.124,-0.031
-1.454,-1.185,0.2695,1.3195,-0.8615,-0.4575,-0.078,-0.1365,-0.28,-0.2245,-0.4875,-0.411,-0.096,-0.1265,-0.0315
-1.453,-1.1825,0.27,1.318,-0.8615,-0.456,-0.076,-0.1385,-0.28,-0.2245,-0.4875,-0.4075,-0.0945,-0.129,-0.032
-1.4565,-1.1865,0.2695,1.3215,-0.8625,-0.4585,-0.073,-0.14,-0.2805,-0.2255,-0.49,-0.406,-0.0935,-0.129,-0.0235
-1.4645,-1.195,0.2695,1.33,-0.867,-0.4625,-0.0785,-0.1405,-0.2805,-0.2255,-0.489,-0.4045,-0.0895,-0.1135,-0.0035
-1.4705,-1.199,0.2715,1.335,-0.871,-0.4635,-0.0765,-0.1355,-0.2765,-0.2225,-0.486,-0.402,-0.09,-0.117,-0.022
-1.466,-1.1945,0.2715,1.3305,-0.8685,-0.4615,-0.0695,-0.1335,-0.2745,-0.22,-0.484,-0.399,-0.0885,-0.1195,-0.0195
-1.4595,-1.1975,0.262,1.3285,-0.8605,-0.4675,-0.074,-0.136,-0.278,-0.2225,-0.4855,-0.4005,-0.086,-0.1275,-0.0095
-1.4505,-1.1895,0.2605,1.32,-0.855,-0.4645,-0.077,-0.1355,-0.2775,-0.2235,-0.483,-0.3985,-0.083,-0.129,-0.025
-1.4535,-1.1955,0.2585,1.3245,-0.8555,-0.4685,-0.078,-0.137,-0.278,-0.224,-0.4835,-0.397,-0.0795,-0.1225,-0.0065
-1.4555,-1.2,0.2555,1.328,-0.8555,-0.472,-0.083,-0.1375,-0.2795,-0.2245,-0.4825,-0.3985,-0.079,-0.1195,-0.002
-1.451,-1.196,0.2545,1.3235,-0.8525,-0.4705,-0.0835,-0.135,-0.2775,-0.2225,-0.4795,-0.3935,-0.075,-0.119,-0.0085
-1.453,-1.198,0.255,1.3255,-0.8535,-0.4715,-0.0755,-0.1345,-0.2785,-0.224,-0.4815,-0.396,-0.0765,-0.127,-0.0105
-1.447,-1.198,0.249,1.3225,-0.8475,-0.4745,-0.0775,-0.135,-0.278,-0.224,-0.481,-0.3985,-0.077,-0.126,-0.0125
-1.4355,-1.1945,0.24,1.315,-0.837,-0.477,-0.0835,-0.1395,-0.2835,-0.2275,-0.4865,-0.4035,-0.0745,-0.118,-0.0055
-1.4365,-1.1925,0.2435,1.314,-0.8395,-0.4745,-0.0855,-0.139,-0.286,-0.2285,-0.487,-0.4055,-0.0765,-0.1185,-0.0135
-1.4495,-1.2005,0.249,1.325,-0.849,-0.4755,-0.083,-0.139,-0.2815,-0.225,-0.4845,-0.4005,-0.077,-0.1265,-0.021
-1.448,-1.198,0.25,1.323,-0.849,-0.4735,-0.0775,-0.136,-0.278,-0.221,-0.4825,-0.399,-0.0785,-0.13,-0.016
-1.4435,-1.1985,0.245,1.321,-0.844,-0.4765,-0.082,-0.133,-0.2785,-0.222,-0.481,-0.399,-0.077,-0.126,-0.0115
-1.452,-1.2025,0.2495,1.3275,-0.8505,-0.476,-0.083,-0.1365,-0.28,-0.227,-0.485,-0.403,-0.0805,-0.119,-0.0135
-1.4585,-1.198,0.2605,1.328,-0.859,-0.4685,-0.075,-0.1315,-0.274,-0.2225,-0.482,-0.4015,-0.083,-0.116,-0.0165
-1.465,-1.195,0.27,1.33,-0.8675,-0.462,-0.08,-0.1345,-0.2775,-0.225,-0.4845,-0.405,-0.0815,-0.1125,-0.0195
-1.4545,-1.1835,0.2705,1.319,-0.862,-0.4565,-0.081,-0.135,-0.2775,-0.2265,-0.4865,-0.407,-0.085,-0.108,-0.014
-1.455,-1.1885,0.2665,1.322,-0.8605,-0.461,-0.077,-0.135,-0.2775,-0.226,-0.4845,-0.4055,-0.088,-0.112,-0.011
-1.458,-1.1915,0.266,1.325,-0.862,-0.4625,-0.0785,-0.1395,-0.2805,-0.2275,-0.4875,-0.4075,-0.089,-0.1185,-0.017
-1.4415,-1.1825,0.2585,1.3115,-0.8495,-0.462,-0.0735,-0.1325,-0.2745,-0.224,-0.484,-0.404,-0.0865,-0.117,-0.0175
-1.437,-1.1815,0.255,1.309,-0.8455,-0.463,-0.0705,-0.133,-0.2755,-0.2265,-0.4865,-0.404,-0.087,-0.118,-0.0145
-1.4425,-1.185,0.257,1.3135,-0.8495,-0.4635,-0.0745,-0.1345,-0.2745,-0.2255,-0.484,-0.402,-0.085,-0.1285,-0.0255
-1.4575,-1.195,0.2625,1.3265,-0.8595,-0.466,-0.0785,-0.136,-0.277,-0.228,-0.4855,-0.4015,-0.0835,-0.124,-0.0185
-1.466,-1.2025,0.2635,1.3345,-0.8645,-0.4695,-0.077,-0.1405,-0.2815,-0.2325,-0.4915,-0.406,-0.087,-0.12,-0.0075
-1.462,-1.204,0.258,1.333,-0.8595,-0.473,-0.0765,-0.1425,-0.2825,-0.234,-0.492,-0.407,-0.09,-0.128,-0.0175
-1.446,-1.1985,0.247,1.322,-0.846,-0.4755,-0.0775,-0.1395,-0.281,-0.2315,-0.4925,-0.407,-0.0875,-0.1305,-0.0225
-1.442,-1.1915,0.25,1.3165,-0.8455,-0.4705,-0.081,-0.135,-0.2775,-0.229,-0.4905,-0.4085,-0.0875,-0.131,-0.0275
-1.4525,-1.1845,0.268,1.319,-0.86,-0.4585,-0.083,-0.14,-0.281,-0.2345,-0.496,-0.412,-0.0905,-0.12,-0.0235
-1.448,-1.187,0.2605,1.3175,-0.8535,-0.4635,-0.0825,-0.1425,-0.2815,-0.2345,-0.4975,-0.41,-0.0855,-0.121,-0.0195
-1.448,-1.1955,0.2525,1.322,-0.85,-0.471,-0.0835,-0.14,-0.2805,-0.232,-0.4955,-0.4095,-0.084,-0.1275,-0.0215
-1.453,-1.2035,0.249,1.328,-0.851,-0.477,-0.082,-0.1425,-0.2825,-0.235,-0.498,-0.4105,-0.088,-0.1225,-0.0135
-1.4495,-1.2105,0.239,1.33,-0.844,-0.4855,-0.084,-0.1445,-0.282,-0.235,-0.4985,-0.409,-0.085,-0.1295,-0.0095
-1.4495,-1.2005,0.249,1.325,-0.849,-0.4755,-0.08,-0.1405,-0.2795,-0.2325,-0.496,-0.408,-0.0885,-0.1245,-0.018
-1.4565,-1.1925,0.264,1.3245,-0.86,-0.464,-0.077,-0.1395,-0.2795,-0.233,-0.4955,-0.4095,-0.09,-0.1205,-0.025
-1.4555,-1.191,0.2645,1.3235,-0.8595,-0.463,-0.078,-0.1405,-0.2795,-0.2325,-0.4965,-0.41,-0.085,-0.1215,-0.024
-1.4485,-1.192,0.2565,1.3205,-0.852,-0.4675,-0.0805,-0.1395,-0.2775,-0.231,-0.497,-0.4085,-0.0835,-0.119,-0.0185
-1.448,-1.194,0.2535,1.321,-0.8505,-0.47,-0.0805,-0.137,-0.2775,-0.2295,-0.4945,-0.407,-0.0815,-0.127,-0.011
-1.4455,-1.191,0.2545,1.318,-0.85,-0.468,-0.0765,-0.1365,-0.2765,-0.2305,-0.4925,-0.406,-0.0805,-0.125,-0.012
-1.446,-1.19,0.256,1.3175,-0.8505,-0.467,-0.0755,-0.136,-0.2735,-0.2285,-0.4915,-0.4035,-0.0795,-0.1195,-0.0145
-1.4485,-1.196,0.2525,1.3225,-0.8505,-0.4715,-0.0755,-0.135,-0.2735,-0.2285,-0.4905,-0.4025,-0.08,-0.1255,-0.019
-1.456,-1.2045,0.2515,1.33,-0.8535,-0.476,-0.0825,-0.1415,-0.282,-0.2365,-0.498,-0.41,-0.0805,-0.125,-0.021
-1.454,-1.2045,0.2495,1.329,-0.8515,-0.477,-0.0805,-0.1405,-0.2825,-0.237,-0.4995,-0.4105,-0.082,-0.1225,-0.017
-1.443,-1.1975,0.245,1.32,-0.8435,-0.476,-0.0815,-0.1375,-0.2765,-0.234,-0.493,-0.404,-0.078,-0.127,-0.012
-1.4455,-1.189,0.256,1.3175,-0.8505,-0.4665,-0.079,-0.1375,-0.2745,-0.2325,-0.492,-0.4035,-0.0775,-0.12,-0.007
-1.4525,-1.1985,0.254,1.3255,-0.853,-0.472,-0.076,-0.138,-0.2745,-0.2345,-0.4945,-0.406,-0.081,-0.114,-0.003
-1.455,-1.208,0.247,1.3315,-0.8505,-0.4805,-0.08,-0.1385,-0.2765,-0.235,-0.497,-0.4065,-0.0805,-0.1185,-0.007
-1.46,-1.2105,0.2495,1.3355,-0.8545,-0.4805,-0.075,-0.1385,-0.2795,-0.2365,-0.5,-0.411,-0.0885,-0.127,-0.0115
-1.455,-1.207,0.248,1.331,-0.851,-0.479,-0.0775,-0.141,-0.2815,-0.239,-0.503,-0.413,-0.0895,-0.1215,-0.0035
-1.444,-1.1965,0.247,1.32,-0.845,-0.474,-0.0795,-0.1395,-0.2815,-0.239,-0.5045,-0.4125,-0.0885,-0.128,-0.0175
-1.453,-1.2035,0.2495,1.328,-0.8505,-0.477,-0.0815,-0.1455,-0.285,-0.2425,-0.5065,-0.4155,-0.0925,-0.1415,-0.028
-1.465,-1.203,0.262,1.334,-0.863,-0.4705,-0.078,-0.145,-0.2825,-0.24,-0.5055,-0.414,-0.0935,-0.117,-0.015
-1.46,-1.194,0.266,1.327,-0.863,-0.464,-0.0695,-0.1335,-0.272,-0.2305,-0.4985,-0.4075,-0.094,-0.112,-0.009
-1.4545,-1.197,0.258,1.3255,-0.856,-0.4695,-0.0655,-0.1345,-0.2725,-0.2305,-0.4975,-0.4085,-0.0945,-0.1245,-0.017
-1.4585,-1.2065,0.2515,1.3325,-0.855,-0.477,-0.072,-0.1405,-0.278,-0.236,-0.503,-0.4145,-0.097,-0.132,-0.0205
-1.4525,-1.2085,0.2435,1.3305,-0.848,-0.4825,-0.077,-0.14,-0.277,-0.236,-0.504,-0.4135,-0.095,-0.1405,-0.0205
-1.452,-1.2025,0.2495,1.327,-0.8505,-0.476,-0.0735,-0.138,-0.2775,-0.235,-0.505,-0.414,-0.095,-0.1355,-0.031
-1.461,-1.2015,0.26,1.331,-0.86,-0.4705,-0.073,-0.138,-0.278,-0.236,-0.5055,-0.416,-0.0965,-0.133,-0.03
-1.465,-1.204,0.2615,1.3345,-0.863,-0.471,-0.072,-0.1355,-0.2775,-0.237,-0.505,-0.4165,-0.097,-0.126,-0.0255
-1.467,-1.205,0.2625,1.336,-0.865,-0.471,-0.072,-0.138,-0.2785,-0.239,-0.5075,-0.4175,-0.1005,-0.126,-0.028
-1.4545,-1.196,0.2585,1.3255,-0.8565,-0.4685,-0.067,-0.1355,-0.2765,-0.2385,-0.506,-0.4135,-0.1005,-0.1285,-0.0285
-1.444,-1.19,0.2535,1.3165,-0.8485,-0.468,-0.0665,-0.1315,-0.275,-0.236,-0.503,-0.4115,-0.0995,-0.1365,-0.0235
-1.4375,-1.1895,0.2475,1.3135,-0.842,-0.471,-0.067,-0.132,-0.276,-0.2355,-0.5025,-0.41,-0.098,-0.138,-0.0195
-1.4325,-1.1915,0.241,1.312,-0.836,-0.475,-0.0685,-0.1335,-0.277,-0.237,-0.5015,-0.407,-0.093,-0.1275,-0.0205
-1.432,-1.1945,0.237,1.313,-0.834,-0.4785,-0.077,-0.1395,-0.2815,-0.239,-0.503,-0.4085,-0.0905,-0.1325,-0.0165
-1.436,-1.199,0.2365,1.3175,-0.8355,-0.481,-0.075,-0.1395,-0.282,-0.2415,-0.5045,-0.4115,-0.0915,-0.1385,-0.0175
-1.434,-1.206,0.2275,1.3195,-0.8305,-0.489,-0.074,-0.135,-0.279,-0.2395,-0.5025,-0.411,-0.089,-0.139,-0.014
-1.426,-1.203,0.2225,1.314,-0.824,-0.49,-0.0715,-0.132,-0.276,-0.2355,-0.5,-0.407,-0.0855,-0.134,-0.013
-1.432,-1.2005,0.2315,1.316,-0.831,-0.484,-0.066,-0.133,-0.2745,-0.234,-0.5005,-0.409,-0.0895,-0.135,-0.01
-1.4415,-1.199,0.242,1.32,-0.8415,-0.4785,-0.0685,-0.1315,-0.2755,-0.2345,-0.499,-0.4095,-0.094,-0.137,-0.008
-1.4565,-1.203,0.2535,1.3295,-0.8545,-0.4745,-0.068,-0.13,-0.2755,-0.2355,-0.5,-0.411,-0.0945,-0.1345,-0.0225
-1.466,-1.205,0.2615,1.3355,-0.8635,-0.4715,-0.067,-0.128,-0.274,-0.233,-0.4995,-0.4125,-0.096,-0.134,-0.025
-1.467,-1.1895,0.277,1.3285,-0.872,-0.456,-0.059,-0.125,-0.2715,-0.231,-0.4985,-0.411,-0.097,-0.1185,-0.0195
-1.4725,-1.183,0.289,1.328,-0.8805,-0.447,-0.0545,-0.13,-0.275,-0.235,-0.505,-0.4165,-0.0985,-0.114,-0.019
-1.4585,-1.182,0.276,1.3205,-0.867,-0.453,-0.069,-0.134,-0.278,-0.2365,-0.507,-0.417,-0.094,-0.1285,-0.0315
-1.448,-1.1805,0.267,1.314,-0.857,-0.4565,-0.072,-0.133,-0.278,-0.235,-0.5075,-0.4155,-0.09,-0.131,-0.0365
-1.451,-1.1835,0.2675,1.3175,-0.859,-0.458,-0.0685,-0.1365,-0.282,-0.241,-0.512,-0.419,-0.093,-0.1275,-0.036
-1.45,-1.1865,0.2635,1.3185,-0.8565,-0.461,-0.075,-0.1405,-0.285,-0.245,-0.5135,-0.4175,-0.0905,-0.1365,-0.057
-1.4585,-1.1975,0.261,1.328,-0.8595,-0.468,-0.0735,-0.139,-0.2845,-0.242,-0.513,-0.416,-0.091,-0.139,-0.0465
-1.4565,-1.2045,0.252,1.3305,-0.854,-0.476,-0.0735,-0.1395,-0.2845,-0.243,-0.5135,-0.416,-0.092,-0.13,-0.0145
-1.4545,-1.2055,0.249,1.3295,-0.8515,-0.478,-0.073,-0.139,-0.2835,-0.2435,-0.5115,-0.4105,-0.0885,-0.1225,-0.0105
-1.4545,-1.2015,0.253,1.328,-0.8535,-0.474,-0.0675,-0.134,-0.28,-0.24,-0.508,-0.4085,-0.0905,-0.1245,-0.011
-1.453,-1.208,0.2445,1.3305,-0.8485,-0.4815,-0.073,-0.1365,-0.2825,-0.242,-0.5105,-0.4145,-0.0885,-0.1345,-0.0135
-1.467,-1.2205,0.2465,1.344,-0.8565,-0.487,-0.0795,-0.1455,-0.2885,-0.248,-0.516,-0.418,-0.0895,-0.1445,-0.0175
-1.453,-1.1935,0.2595,1.3235,-0.856,-0.467,-0.067,-0.138,-0.2815,-0.239,-0.508,-0.411,-0.094,-0.1365,-0.016
-1.4315,-1.1735,0.258,1.302,-0.8445,-0.4575,-0.06,-0.122,-0.2695,-0.23,-0.5,-0.4035,-0.09,-0.133,-0.0175
-1.443,-1.1855,0.257,1.314,-0.85,-0.464,-0.062,-0.1275,-0.276,-0.237,-0.508,-0.41,-0.096,-0.1435,-0.016
-1.4545,-1.194,0.2605,1.324,-0.857,-0.4665,-0.0625,-0.1325,-0.2815,-0.242,-0.512,-0.415,-0.099,-0.13,-0.008
-1.4635,-1.203,0.261,1.3335,-0.862,-0.471,-0.0655,-0.133,-0.28,-0.2415,-0.51,-0.4165,-0.098,-0.1305,-0.008
-1.464,-1.203,0.2615,1.3335,-0.8625,-0.4705,-0.0625,-0.132,-0.2765,-0.238,-0.5095,-0.417,-0.0985,-0.135,-0.018
-1.4535,-1.1945,0.259,1.324,-0.856,-0.4675,-0.0615,-0.128,-0.2725,-0.236,-0.5075,-0.4145,-0.0955,-0.134,-0.0235
-1.441,-1.1855,0.2545,1.313,-0.8475,-0.465,-0.063,-0.132,-0.2755,-0.237,-0.5065,-0.413,-0.0945,-0.131,-0.02
-1.4385,-1.1865,0.251,1.3125,-0.844,-0.4675,-0.0645,-0.132,-0.277,-0.2375,-0.506,-0.4105,-0.094,-0.125,-0.0185
-1.446,-1.192,0.2535,1.3185,-0.8495,-0.469,-0.066,-0.133,-0.2775,-0.239,-0.506,-0.4095,-0.0945,-0.132,-0.0205
-1.4445,-1.1895,0.254,1.317,-0.849,-0.4675,-0.0655,-0.1325,-0.278,-0.2395,-0.508,-0.411,-0.093,-0.136,-0.0225
-1.44,-1.188,0.2515,1.314,-0.8455,-0.468,-0.069,-0.135,-0.2795,-0.2415,-0.51,-0.412,-0.0905,-0.142,-0.021
-1.4385,-1.1855,0.2525,1.312,-0.845,-0.4665,-0.0665,-0.136,-0.2795,-0.2455,-0.5125,-0.4125,-0.095,-0.136,-0.0175
-1.443,-1.187,0.2555,1.3145,-0.849,-0.4655,-0.063,-0.132,-0.2775,-0.2415,-0.51,-0.411,-0.0965,-0.1285,-0.014
-1.4485,-1.193,0.2555,1.3205,-0.852,-0.4685,-0.0665,-0.14,-0.284,-0.245,-0.512,-0.4115,-0.0965,-0.137,-0.013
-1.4385,-1.1835,0.2545,1.3105,-0.846,-0.464,-0.065,-0.136,-0.2805,-0.244,-0.509,-0.4095,-0.095,-0.134,-0.0155
-1.4325,-1.177,0.2545,1.3045,-0.843,-0.461,-0.062,-0.127,-0.273,-0.2365,-0.5,-0.405,-0.094,-0.132,-0.0105
-1.437,-1.184,0.2525,1.31,-0.844,-0.4655,-0.061,-0.1295,-0.274,-0.238,-0.5015,-0.407,-0.0955,-0.138,-0.017
-1.436,-1.182,0.2535,1.309,-0.844,-0.464,-0.061,-0.1335,-0.276,-0.239,-0.504,-0.411,-0.095,-0.141,-0.0305
-1.428,-1.1805,0.247,1.304,-0.8375,-0.4665,-0.0635,-0.133,-0.276,-0.241,-0.504,-0.413,-0.0965,-0.145,-0.033
-1.4245,-1.178,0.2465,1.301,-0.835,-0.4655,-0.0615,-0.1275,-0.2715,-0.2385,-0.503,-0.413,-0.0985,-0.137,-0.024
-1.4245,-1.1755,0.249,1.2995,-0.8365,-0.463,-0.0595,-0.1295,-0.2725,-0.2365,-0.501,-0.415,-0.0995,-0.143,-0.0185
-1.421,-1.1745,0.246,1.2975,-0.833,-0.464,-0.059,-0.1325,-0.2755,-0.24,-0.5035,-0.415,-0.0985,-0.1455,-0.01
-1.4325,-1.1815,0.2505,1.3065,-0.841,-0.465,-0.062,-0.133,-0.276,-0.2405,-0.5055,-0.416,-0.102,-0.134,-0.0055
-1.4395,-1.1795,0.2595,1.309,-0.8495,-0.4595,-0.066,-0.135,-0.278,-0.2435,-0.5045,-0.419,-0.1025,-0.1285,-0.011
-1.4395,-1.173,0.2665,1.306,-0.8525,-0.453,-0.064,-0.1355,-0.28,-0.2455,-0.509,-0.422,-0.1035,-0.1135,-0.003
-1.4345,-1.176,0.258,1.305,-0.8455,-0.459,-0.0635,-0.136,-0.2815,-0.2455,-0.5115,-0.4255,-0.108,-0.1215,-0.006
-1.424,-1.1695,0.254,1.2965,-0.8385,-0.4575,-0.063,-0.1355,-0.281,-0.2445,-0.5105,-0.426,-0.109,-0.135,-0.0205
-1.4225,-1.166,0.2565,1.294,-0.839,-0.4545,-0.0675,-0.1345,-0.281,-0.2445,-0.511,-0.422,-0.1065,-0.133,-0.0245
-1.42,-1.1645,0.255,1.292,-0.837,-0.4545,-0.0685,-0.137,-0.283,-0.246,-0.513,-0.4215,-0.1045,-0.123,-0.0225
-1.428,-1.17,0.258,1.2985,-0.8425,-0.4555,-0.068,-0.1395,-0.284,-0.248,-0.514,-0.4255,-0.109,-0.1185,-0.0215
-1.433,-1.172,0.2605,1.302,-0.846,-0.4555,-0.0725,-0.1395,-0.2865,-0.249,-0.515,-0.426,-0.108,-0.1255,-0.0225
-1.4325,-1.1715,0.2605,1.3015,-0.846,-0.455,-0.073,-0.1395,-0.286,-0.247,-0.5115,-0.4235,-0.105,-0.127,-0.021
-1.4395,-1.177,0.262,1.308,-0.8505,-0.457,-0.0685,-0.1355,-0.2835,-0.2455,-0.509,-0.422,-0.108,-0.128,-0.018
-1.4375,-1.179,0.258,1.308,-0.8475,-0.4605,-0.066,-0.135,-0.2815,-0.242,-0.506,-0.42,-0.1075,-0.123,-0.013
-1.433,-1.177,0.2555,1.305,-0.8435,-0.4605,-0.0685,-0.1375,-0.284,-0.244,-0.5065,-0.418,-0.1035,-0.1265,-0.0155
-1.4375,-1.173,0.2635,1.305,-0.85,-0.4545,-0.069,-0.1375,-0.284,-0.245,-0.507,-0.419,-0.1035,-0.1275,-0.022
-1.439,-1.175,0.264,1.3065,-0.851,-0.455,-0.0705,-0.1375,-0.2845,-0.244,-0.506,-0.419,-0.104,-0.1195,-0.0155
-1.4255,-1.169,0.256,1.297,-0.84,-0.456,-0.07,-0.1345,-0.287,-0.247,-0.506,-0.419,-0.1,-0.116,-0.014
-1.422,-1.167,0.2545,1.2945,-0.838,-0.456,-0.0705,-0.14,-0.286,-0.2475,-0.507,-0.4195,-0.0965,-0.1265,-0.02
-1.429,-1.1705,0.258,1.2995,-0.843,-0.456,-0.0735,-0.1375,-0.2855,-0.2475,-0.5075,-0.4185,-0.096,-0.1335,-0.015
-1.4295,-1.172,0.257,1.3005,-0.8425,-0.457,-0.071,-0.1345,-0.2845,-0.2455,-0.509,-0.4165,-0.093,-0.1285,-0.0065
-1.4235,-1.1645,0.2585,1.2935,-0.8405,-0.453,-0.071,-0.138,-0.286,-0.2455,-0.508,-0.4145,-0.0935,-0.134,-0.021
-1.4105,-1.151,0.259,1.2805,-0.8345,-0.4455,-0.0705,-0.1355,-0.2835,-0.2435,-0.5035,-0.4125,-0.0965,-0.131,-0.0235
-1.4205,-1.165,0.255,1.2925,-0.837,-0.455,-0.0685,-0.1395,-0.2865,-0.2465,-0.507,-0.416,-0.097,-0.119,-0.0005
-1.43,-1.169,0.2605,1.2995,-0.845,-0.454,-0.0685,-0.133,-0.2835,-0.244,-0.505,-0.416,-0.096,-0.121,-0.0095
-1.4285,-1.1635,0.2645,1.296,-0.846,-0.449,-0.0645,-0.1285,-0.2775,-0.2395,-0.5005,-0.412,-0.096,-0.1265,-0.0155
-1.4335,-1.1735,0.2595,1.3035,-0.846,-0.4565,-0.068,-0.1335,-0.282,-0.2435,-0.5045,-0.415,-0.0975,-0.1295,-0.0085
-1.437,-1.173,0.2635,1.305,-0.85,-0.4545,-0.071,-0.135,-0.285,-0.243,-0.506,-0.419,-0.1,-0.1325,-0.013
-1.4315,-1.171,0.26,1.301,-0.8455,-0.455,-0.0685,-0.137,-0.287,-0.2445,-0.507,-0.418,-0.0995,-0.124,-0.014
-1.4295,-1.165,0.2645,1.297,-0.8465,-0.45,-0.0665,-0.1355,-0.286,-0.2455,-0.506,-0.416,-0.097,-0.1275,-0.0245
-1.429,-1.1595,0.269,1.294,-0.8485,-0.445,-0.0645,-0.1375,-0.286,-0.2455,-0.506,-0.4195,-0.0985,-0.137,-0.027
-1.4095,-1.1645,0.245,1.2865,-0.827,-0.4595,-0.077,-0.145,-0.2915,-0.251,-0.511,-0.424,-0.0975,-0.129,-0.0115
-1.4055,-1.1645,0.2405,1.285,-0.823,-0.4615,-0.0775,-0.1415,-0.29,-0.25,-0.5095,-0.4235,-0.099,-0.127,-0.001
-1.404,-1.151,0.2525,1.277,-0.8275,-0.449,-0.0645,-0.1345,-0.2835,-0.2425,-0.504,-0.418,-0.098,-0.1165,-0.001
-1.4005,-1.1465,0.254,1.2735,-0.827,-0.446,-0.0625,-0.135,-0.282,-0.2415,-0.5025,-0.4165,-0.1005,-0.113,-0.006
-1.407,-1.149,0.2575,1.2775,-0.832,-0.4455,-0.06,-0.136,-0.2835,-0.243,-0.5035,-0.419,-0.105,-0.1265,-0.017
-1.405,-1.149,0.2555,1.277,-0.83,-0.4465,-0.0675,-0.1395,-0.285,-0.2465,-0.507,-0.42,-0.1,-0.1285,-0.0205
-1.406,-1.149,0.257,1.2775,-0.831,-0.446,-0.072,-0.1405,-0.286,-0.249,-0.509,-0.421,-0.1005,-0.125,-0.0115
-1.392,-1.13,0.2615,1.2605,-0.826,-0.434,-0.067,-0.138,-0.2835,-0.244,-0.503,-0.4165,-0.0985,-0.1185,-0.008
-1.3945,-1.1365,0.2575,1.2655,-0.8255,-0.4395,-0.065,-0.1345,-0.2785,-0.24,-0.499,-0.4135,-0.095,-0.129,-0.007
-1.409,-1.1445,0.2645,1.2765,-0.836,-0.44,-0.0715,-0.137,-0.282,-0.243,-0.503,-0.421,-0.0965,-0.1255,-0.0115
-1.4195,-1.1485,0.2705,1.284,-0.8445,-0.4385,-0.0775,-0.1435,-0.288,-0.248,-0.508,-0.425,-0.0935,-0.113,-0.009
-1.421,-1.1615,0.259,1.291,-0.8395,-0.451,-0.0725,-0.1415,-0.2855,-0.246,-0.5055,-0.422,-0.092,-0.125,-0.0055
-1.404,-1.1485,0.255,1.276,-0.829,-0.4465,-0.0665,-0.137,-0.28,-0.2395,-0.498,-0.4135,-0.092,-0.1195,-0.0035
-1.4065,-1.1445,0.2615,1.275,-0.8335,-0.441,-0.0575,-0.1315,-0.2775,-0.2385,-0.497,-0.4115,-0.0955,-0.116,-0.0045
-1.411,-1.1505,0.26,1.2805,-0.835,-0.445,-0.0635,-0.133,-0.281,-0.2415,-0.499,-0.416,-0.1005,-0.1275,-0.0115
-1.406,-1.152,0.2535,1.279,-0.8295,-0.449,-0.067,-0.1345,-0.281,-0.24,-0.498,-0.4135,-0.0955,-0.1295,-0.0105
-1.4075,-1.1545,0.2525,1.281,-0.8295,-0.451,-0.063,-0.132,-0.2785,-0.238,-0.496,-0.412,-0.094,-0.1265,-0.0045
-1.41,-1.1595,0.25,1.2845,-0.8295,-0.4545,-0.062,-0.131,-0.279,-0.2385,-0.496,-0.4115,-0.093,-0.1335,-0.011
-1.4055,-1.1595,0.2455,1.282,-0.825,-0.457,-0.058,-0.1295,-0.2775,-0.237,-0.4945,-0.4095,-0.093,-0.139,-0.0185
-1.4065,-1.1555,0.2505,1.2805,-0.828,-0.4525,-0.066,-0.137,-0.281,-0.2405,-0.497,-0.4135,-0.099,-0.1275,-0.009
-1.3985,-1.1515,0.246,1.275,-0.822,-0.4525,-0.0665,-0.1375,-0.2815,-0.24,-0.497,-0.414,-0.0975,-0.1205,-0.0065
-1.394,-1.1535,0.2395,1.2735,-0.816,-0.457,-0.063,-0.1345,-0.278,-0.238,-0.4945,-0.412,-0.0965,-0.1315,-0.0095
-1.4055,-1.1555,0.2495,1.2805,-0.827,-0.453,-0.06,-0.1325,-0.2755,-0.2365,-0.493,-0.4115,-0.099,-0.1365,-0.026
-1.4045,-1.1535,0.251,1.279,-0.8275,-0.451,-0.062,-0.131,-0.2775,-0.237,-0.4945,-0.413,-0.1005,-0.1405,-0.038
-1.4005,-1.152,0.248,1.276,-0.824,-0.452,-0.0625,-0.1325,-0.277,-0.2365,-0.4935,-0.411,-0.099,-0.14,-0.014
-1.3975,-1.1445,0.253,1.2705,-0.8245,-0.4455,-0.061,-0.129,-0.272,-0.2325,-0.4885,-0.4055,-0.0965,-0.124,-0.0005
-1.395,-1.1445,0.25,1.2695,-0.822,-0.447,-0.0665,-0.1355,-0.278,-0.239,-0.4945,-0.4115,-0.096,-0.131,-0.0185
-1.396,-1.152,0.243,1.2735,-0.819,-0.454,-0.07,-0.1395,-0.2825,-0.242,-0.4985,-0.415,-0.0925,-0.133,-0.0135
-1.3945,-1.1535,0.24,1.274,-0.8165,-0.4565,-0.0685,-0.134,-0.2775,-0.236,-0.4945,-0.4105,-0.09,-0.1255,0.0025
-1.397,-1.1495,0.247,1.273,-0.8215,-0.451,-0.0675,-0.134,-0.274,-0.234,-0.4915,-0.407,-0.0875,-0.1215,-0.0025
-1.399,-1.1355,0.263,1.267,-0.8305,-0.436,-0.062,-0.129,-0.269,-0.2295,-0.4865,-0.4035,-0.089,-0.112,-0.0035
-1.3855,-1.115,0.2705,1.25,-0.8275,-0.422,-0.051,-0.1235,-0.264,-0.224,-0.482,-0.397,-0.0925,-0.1145,-0.008
-1.374,-1.099,0.2745,1.236,-0.8235,-0.412,-0.0505,-0.1215,-0.26,-0.2215,-0.4785,-0.393,-0.091,-0.1105,-0.0175
-1.3745,-1.097,0.2775,1.2355,-0.8255,-0.4095,-0.049,-0.1215,-0.26,-0.221,-0.4785,-0.394,-0.093,-0.103,-0.018
-1.371,-1.0875,0.283,1.229,-0.8265,-0.402,-0.0515,-0.1225,-0.257,-0.22,-0.476,-0.391,-0.093,-0.0895,-0.0175
-1.3765,-1.083,0.293,1.2295,-0.834,-0.395,-0.046,-0.122,-0.2545,-0.2185,-0.4745,-0.39,-0.0925,-0.0755,-0.0205
-1.385,-1.088,0.2965,1.2365,-0.8405,-0.3955,-0.0395,-0.121,-0.253,-0.216,-0.474,-0.393,-0.0925,-0.071,-0.018
-1.3875,-1.0885,0.2985,1.2375,-0.8425,-0.395,-0.043,-0.121,-0.251,-0.2155,-0.473,-0.3925,-0.0905,-0.0625,-0.014
-1.3775,-1.084,0.2925,1.2305,-0.8345,-0.3955,-0.039,-0.119,-0.2485,-0.211,-0.471,-0.389,-0.086,-0.0675,-0.015
-1.3765,-1.0815,0.294,1.2285,-0.8345,-0.3935,-0.043,-0.121,-0.2495,-0.2125,-0.472,-0.3905,-0.083,-0.072,-0.0175
-1.387,-1.0815,0.305,1.234,-0.8455,-0.388,-0.0435,-0.1255,-0.2525,-0.2165,-0.4755,-0.394,-0.087,-0.0655,-0.0255
-1.362,-1.0525,0.309,1.207,-0.835,-0.3715,-0.0315,-0.117,-0.244,-0.2085,-0.468,-0.389,-0.092,-0.0615,-0.023
-1.3455,-1.024,0.321,1.1845,-0.833,-0.3515,-0.027,-0.1135,-0.241,-0.2065,-0.4665,-0.3895,-0.096,-0.04,-0.016
-1.366,-1.0345,0.331,1.2,-0.848,-0.3515,-0.0245,-0.116,-0.245,-0.21,-0.4715,-0.394,-0.098,-0.0395,-0.025
-1.382,-1.052,0.3295,1.217,-0.855,-0.361,-0.0185,-0.116,-0.2435,-0.2115,-0.473,-0.3975,-0.1035,-0.0425,-0.035
-1.3855,-1.057,0.3275,1.221,-0.856,-0.3645,-0.016,-0.116,-0.2435,-0.21,-0.4735,-0.397,-0.105,-0.036,-0.0375
-1.385,-1.0585,0.326,1.2215,-0.855,-0.366,-0.015,-0.1165,-0.244,-0.21,-0.4715,-0.3925,-0.101,-0.051,-0.035
-1.378,-1.0545,0.3225,1.216,-0.85,-0.3655,-0.0155,-0.1165,-0.2435,-0.211,-0.4715,-0.392,-0.1,-0.0485,-0.0365
-1.3775,-1.0525,0.3245,1.215,-0.8505,-0.364,-0.016,-0.118,-0.245,-0.212,-0.4725,-0.3925,-0.101,-0.051,-0.0395
-1.382,-1.0565,0.3245,1.219,-0.8525,-0.366,-0.0135,-0.1165,-0.242,-0.21,-0.469,-0.39,-0.1025,-0.05,-0.042
-1.3805,-1.051,0.329,1.2155,-0.8545,-0.361,-0.014,-0.1145,-0.241,-0.209,-0.468,-0.3905,-0.1025,-0.042,-0.0435
-1.382,-1.0475,0.3335,1.2145,-0.857,-0.357,-0.02,-0.118,-0.2445,-0.212,-0.469,-0.3915,-0.0995,-0.0475,-0.0485
-1.3805,-1.046,0.3335,1.213,-0.8565,-0.356,-0.0255,-0.117,-0.2445,-0.21,-0.4685,-0.389,-0.098,-0.0425,-0.0425
-1.3815,-1.0475,0.333,1.214,-0.857,-0.357,-0.028,-0.1185,-0.2465,-0.2095,-0.4685,-0.391,-0.099,-0.0405,-0.037
-1.383,-1.045,0.3375,1.2135,-0.8595,-0.3535,-0.031,-0.1195,-0.244,-0.208,-0.467,-0.392,-0.099,-0.028,-0.0335
-1.3775,-1.0305,0.346,1.2035,-0.8615,-0.342,-0.039,-0.123,-0.242,-0.206,-0.465,-0.3915,-0.0965,-0.016,-0.0235
-1.3775,-1.0285,0.349,1.2025,-0.8625,-0.3395,-0.0415,-0.122,-0.2395,-0.2035,-0.4615,-0.3875,-0.091,-0.014,-0.026
-1.373,-1.025,0.3475,1.1985,-0.86,-0.3385,-0.045,-0.118,-0.234,-0.198,-0.4565,-0.381,-0.0855,-0.01,-0.0265
-1.368,-1.013,0.3545,1.19,-0.8605,-0.329,-0.0545,-0.1265,-0.2355,-0.197,-0.453,-0.3805,-0.0815,-0.0095,-0.035
-1.367,-0.9925,0.374,1.1795,-0.87,-0.309,-0.0645,-0.126,-0.2355,-0.1925,-0.4475,-0.3755,-0.074,0.0035,-0.03
-1.353,-0.9685,0.3845,1.1605,-0.868,-0.2915,-0.076,-0.1265,-0.2325,-0.1875,-0.4415,-0.3675,-0.065,0.021,-0.016
-1.3485,-0.9715,0.376,1.1595,-0.8615,-0.2975,-0.0865,-0.1315,-0.2335,-0.1895,-0.439,-0.365,-0.058,0.02,-0.016
-1.3575,-0.9875,0.369,1.1725,-0.863,-0.309,-0.0985,-0.139,-0.2405,-0.194,-0.444,-0.3665,-0.053,0.0175,-0.0065
-1.359,-0.9905,0.368,1.1745,-0.863,-0.311,-0.0995,-0.144,-0.243,-0.196,-0.446,-0.367,-0.049,0.019,0.0025
-1.347,-0.991,0.3555,1.1685,-0.851,-0.3175,-0.1005,-0.14,-0.243,-0.1955,-0.443,-0.3645,-0.045,0.013,0.007
-1.331,-0.9885,0.342,1.16,-0.836,-0.323,-0.1095,-0.1435,-0.2485,-0.1995,-0.4465,-0.3655,-0.044,0.015,0.0115
-1.3335,-0.9915,0.3415,1.162,-0.8365,-0.325,-0.1115,-0.1475,-0.252,-0.204,-0.449,-0.3705,-0.045,0.02,0.0155
-1.335,-0.999,0.3355,1.1665,-0.835,-0.3315,-0.1165,-0.152,-0.2555,-0.2065,-0.4515,-0.3725,-0.042,0.0025,0.0245
-1.3305,-0.9945,0.336,1.162,-0.833,-0.329,-0.1095,-0.1495,-0.253,-0.204,-0.448,-0.367,-0.0415,-0.011,0.029
-1.3365,-0.994,0.342,1.165,-0.839,-0.326,-0.103,-0.1425,-0.2485,-0.1975,-0.441,-0.362,-0.0415,0.0,0.029
-1.3345,-0.9975,0.336,1.1655,-0.8345,-0.3305,-0.111,-0.146,-0.251,-0.198,-0.4395,-0.3625,-0.039,0.0035,0.029
-1.3335,-0.99,0.3425,1.1615,-0.8375,-0.3235,-0.1075,-0.1425,-0.247,-0.193,-0.434,-0.3585,-0.0375,-0.0025,0.028
-1.3395,-0.9825,0.3565,1.1605,-0.8475,-0.3125,-0.1025,-0.1345,-0.238,-0.1845,-0.427,-0.3505,-0.032,0.0005,0.028
-1.344,-0.983,0.36,1.1635,-0.8515,-0.3115,-0.1045,-0.1375,-0.241,-0.188,-0.4295,-0.3525,-0.033,0.003,0.028
-1.339,-0.977,0.362,1.1575,-0.85,-0.307,-0.1085,-0.1435,-0.244,-0.1915,-0.432,-0.356,-0.033,0.01,0.0245
-1.3335,-0.9605,0.3725,1.147,-0.8525,-0.2935,-0.11,-0.1405,-0.2395,-0.187,-0.426,-0.3505,-0.0315,0.024,0.019
-1.339,-0.953,0.3855,1.1455,-0.8615,-0.2835,-0.1055,-0.138,-0.238,-0.1825,-0.423,-0.3485,-0.0345,0.0295,0.021
-1.336,-0.9455,0.39,1.141,-0.8625,-0.278,-0.1065,-0.1415,-0.24,-0.185,-0.4235,-0.347,-0.032,0.04,0.0365
-1.3315,-0.942,0.389,1.1365,-0.8595,-0.2765,-0.1175,-0.147,-0.243,-0.1865,-0.4225,-0.3455,-0.0235,0.047,0.037
-1.332,-0.9525,0.3785,1.142,-0.8545,-0.287,-0.1255,-0.149,-0.2445,-0.186,-0.4215,-0.346,-0.015,0.034,0.023
-1.324,-0.9605,0.3635,1.142,-0.843,-0.2985,-0.126,-0.147,-0.246,-0.1885,-0.423,-0.348,-0.013,0.0245,0.037
-1.3205,-0.962,0.358,1.141,-0.8385,-0.302,-0.125,-0.1485,-0.249,-0.191,-0.428,-0.3525,-0.016,0.0235,0.0465
-1.319,-0.961,0.3575,1.14,-0.838,-0.3015,-0.124,-0.1525,-0.254,-0.196,-0.431,-0.3535,-0.02,0.0205,0.053
-1.319,-0.9675,0.351,1.143,-0.8345,-0.308,-0.13,-0.1595,-0.2625,-0.2045,-0.436,-0.3595,-0.025,0.018,0.0595
-1.326,-0.983,0.3425,1.154,-0.834,-0.32,-0.132,-0.1615,-0.266,-0.207,-0.44,-0.3625,-0.027,0.0075,0.0545
-1.322,-0.9875,0.334,1.1545,-0.8275,-0.3265,-0.129,-0.158,-0.264,-0.206,-0.439,-0.358,-0.0265,-0.012,0.0535
-1.317,-1.0035,0.3135,1.16,-0.815,-0.3445,-0.127,-0.156,-0.2655,-0.2065,-0.4415,-0.36,-0.0275,-0.031,0.0585
-1.31,-1.022,0.287,1.166,-0.798,-0.3675,-0.1275,-0.1555,-0.269,-0.2085,-0.445,-0.3615,-0.0265,-0.0535,0.0585
-1.306,-1.028,0.2775,1.167,-0.7915,-0.375,-0.127,-0.153,-0.2655,-0.2085,-0.4415,-0.359,-0.022,-0.0605,0.061
-1.3005,-1.0335,0.267,1.167,-0.7835,-0.383,-0.12,-0.1485,-0.261,-0.205,-0.438,-0.357,-0.018,-0.0665,0.0515
-1.288,-1.0265,0.261,1.157,-0.774,-0.3825,-0.1225,-0.1445,-0.257,-0.1995,-0.432,-0.349,-0.0095,-0.0775,0.033
-1.283,-1.02,0.2625,1.1515,-0.7725,-0.3785,-0.1205,-0.137,-0.251,-0.193,-0.424,-0.342,-0.005,-0.0625,0.0555
-1.2835,-1.016,0.267,1.15,-0.775,-0.3745,-0.12,-0.134,-0.246,-0.1875,-0.42,-0.339,-0.003,-0.053,0.0605
-1.2875,-1.0155,0.2715,1.1515,-0.779,-0.3715,-0.1195,-0.133,-0.243,-0.1845,-0.4165,-0.335,-0.0005,-0.0515,0.051
-1.287,-1.019,0.2675,1.153,-0.777,-0.3755,-0.107,-0.126,-0.237,-0.1795,-0.4125,-0.333,-0.001,-0.0525,0.041
-1.2825,-1.0155,0.267,1.1485,-0.774,-0.374,-0.1115,-0.126,-0.237,-0.178,-0.4115,-0.332,-0.002,-0.0565,0.0385
-1.2825,-1.0165,0.265,1.1495,-0.773,-0.3755,-0.1115,-0.126,-0.238,-0.179,-0.414,-0.3335,-0.001,-0.054,0.047
-1.2885,-1.021,0.267,1.1545,-0.7775,-0.3765,-0.1055,-0.1225,-0.233,-0.1755,-0.4135,-0.3365,-0.003,-0.052,0.0395
-1.293,-1.027,0.265,1.1595,-0.7785,-0.381,-0.1035,-0.12,-0.2305,-0.173,-0.414,-0.337,-0.007,-0.062,0.0315
-1.3,-1.0375,0.262,1.1685,-0.7805,-0.3875,-0.098,-0.117,-0.2295,-0.173,-0.4155,-0.343,-0.012,-0.0775,0.0085
-1.306,-1.0345,0.271,1.17,-0.788,-0.3815,-0.097,-0.119,-0.232,-0.1765,-0.419,-0.3515,-0.021,-0.0765,0.002
-1.314,-1.0335,0.2805,1.1735,-0.797,-0.376,-0.0835,-0.1145,-0.23,-0.178,-0.4225,-0.3535,-0.0295,-0.08,0.0065
-1.3205,-1.038,0.282,1.179,-0.8005,-0.3775,-0.075,-0.1135,-0.229,-0.179,-0.4225,-0.352,-0.032,-0.079,0.005
-1.3265,-1.0355,0.2905,1.1805,-0.808,-0.372,-0.076,-0.115,-0.227,-0.1775,-0.421,-0.3525,-0.035,-0.0705,-0.005
-1.329,-1.0255,0.303,1.177,-0.8155,-0.361,-0.076,-0.112,-0.226,-0.1745,-0.419,-0.352,-0.037,-0.0575,-0.006
-1.326,-1.022,0.3035,1.174,-0.814,-0.359,-0.08,-0.115,-0.2275,-0.1745,-0.416,-0.3495,-0.0345,-0.051,0.007
-1.3265,-1.0325,0.2935,1.1795,-0.8095,-0.3695,-0.081,-0.1185,-0.231,-0.1785,-0.4185,-0.3515,-0.0375,-0.059,0.0125
-1.328,-1.0445,0.283,1.1855,-0.805,-0.3805,-0.087,-0.1275,-0.2435,-0.191,-0.4305,-0.36,-0.043,-0.065,0.0235
-1.3355,-1.053,0.2815,1.194,-0.808,-0.3855,-0.084,-0.1305,-0.25,-0.199,-0.4395,-0.3685,-0.0495,-0.0725,0.0255
-1.3365,-1.059,0.277,1.1975,-0.806,-0.391,-0.0775,-0.1275,-0.2515,-0.2,-0.442,-0.37,-0.0575,-0.092,0.0235
-1.338,-1.067,0.2705,1.2025,-0.804,-0.398,-0.078,-0.1315,-0.2575,-0.2065,-0.449,-0.3775,-0.067,-0.1045,0.024
-1.338,-1.071,0.267,1.204,-0.802,-0.4015,-0.071,-0.131,-0.2595,-0.21,-0.453,-0.38,-0.0735,-0.102,0.019
-1.3365,-1.074,0.262,1.205,-0.7985,-0.406,-0.065,-0.124,-0.2525,-0.203,-0.4465,-0.374,-0.0725,-0.1075,0.012
-1.3405,-1.0775,0.263,1.2085,-0.801,-0.407,-0.055,-0.116,-0.243,-0.195,-0.44,-0.373,-0.0725,-0.1165,0.002
-1.3285,-1.0625,0.2655,1.195,-0.7965,-0.398,-0.048,-0.109,-0.2375,-0.1885,-0.4355,-0.3695,-0.072,-0.117,-0.0055
-1.3115,-1.0565,0.254,1.1835,-0.782,-0.401,-0.049,-0.1055,-0.2345,-0.186,-0.435,-0.367,-0.069,-0.116,-0.005
-1.3095,-1.0735,0.236,1.191,-0.772,-0.4185,-0.0565,-0.109,-0.2405,-0.193,-0.4405,-0.372,-0.0675,-0.13,-0.0045
-1.314,-1.084,0.2295,1.199,-0.7715,-0.427,-0.06,-0.114,-0.2445,-0.1975,-0.4455,-0.3785,-0.0685,-0.138,-0.004
-1.3155,-1.0895,0.225,1.2025,-0.77,-0.432,-0.0565,-0.1155,-0.2495,-0.2025,-0.454,-0.3855,-0.0745,-0.141,-0.003
-1.318,-1.0955,0.222,1.2065,-0.7695,-0.4365,-0.0645,-0.12,-0.2605,-0.2135,-0.4675,-0.398,-0.0825,-0.1495,-0.0055
-1.3365,-1.1055,0.2305,1.2205,-0.783,-0.4375,-0.0575,-0.121,-0.263,-0.2175,-0.4715,-0.401,-0.091,-0.156,-0.0045
-1.3485,-1.1175,0.2305,1.2325,-0.789,-0.4435,-0.051,-0.1205,-0.261,-0.2165,-0.4675,-0.3985,-0.0955,-0.1635,-0.0015
-1.337,-1.1115,0.225,1.224,-0.7805,-0.443,-0.053,-0.1165,-0.258,-0.215,-0.463,-0.398,-0.093,-0.1615,0.002
-1.3285,-1.1025,0.226,1.215,-0.7765,-0.438,-0.047,-0.1135,-0.2545,-0.2135,-0.462,-0.3975,-0.094,-0.1545,0.0035
-1.3305,-1.1085,0.2215,1.2195,-0.7755,-0.443,-0.0545,-0.118,-0.2575,-0.2175,-0.4675,-0.401,-0.0935,-0.1575,0.001
-1.326,-1.108,0.217,1.217,-0.771,-0.445,-0.063,-0.1225,-0.2625,-0.2215,-0.4725,-0.402,-0.0895,-0.164,0.004
-1.3265,-1.107,0.2195,1.2165,-0.7725,-0.4435,-0.059,-0.1195,-0.2595,-0.217,-0.4675,-0.396,-0.0875,-0.167,0.0085
-1.3275,-1.102,0.225,1.2145,-0.7755,-0.4385,-0.0535,-0.113,-0.253,-0.212,-0.4625,-0.3905,-0.0855,-0.1555,0.012
-1.3335,-1.0995,0.2335,1.216,-0.783,-0.433,-0.054,-0.115,-0.255,-0.2145,-0.464,-0.392,-0.085,-0.149,0.019
-1.337,-1.1055,0.2315,1.221,-0.784,-0.4365,-0.0565,-0.1185,-0.258,-0.2185,-0.467,-0.3945,-0.0865,-0.1555,0.0155
-1.332,-1.1025,0.229,1.217,-0.78,-0.4365,-0.0525,-0.1135,-0.2545,-0.2175,-0.466,-0.392,-0.089,-0.156,0.0075
-1.3395,-1.107,0.232,1.223,-0.7855,-0.437,-0.0515,-0.115,-0.255,-0.2195,-0.467,-0.3945,-0.092,-0.1585,0.0005
-1.327,-1.106,0.2205,1.2165,-0.7735,-0.4425,-0.053,-0.1165,-0.2565,-0.22,-0.47,-0.398,-0.0935,-0.1665,-0.008
-1.3125,-1.0995,0.213,1.206,-0.762,-0.443,-0.0515,-0.1125,-0.2545,-0.216,-0.467,-0.397,-0.0945,-0.167,-0.007
-1.3095,-1.093,0.216,1.201,-0.762,-0.4385,-0.05,-0.111,-0.251,-0.2135,-0.4645,-0.3945,-0.095,-0.163,-0.006
-1.3095,-1.092,0.217,1.2005,-0.7625,-0.437,-0.049,-0.1105,-0.2495,-0.211,-0.464,-0.394,-0.094,-0.1675,-0.007
-1.3175,-1.105,0.212,1.211,-0.764,-0.4465,-0.047,-0.1105,-0.251,-0.211,-0.4645,-0.396,-0.097,-0.173,-0.0075
-1.3235,-1.113,0.2105,1.218,-0.7665,-0.451,-0.044,-0.1075,-0.2505,-0.2095,-0.4635,-0.395,-0.0995,-0.1655,0.004
-1.3325,-1.114,0.218,1.223,-0.7745,-0.4475,-0.0395,-0.1055,-0.2485,-0.208,-0.4615,-0.393,-0.1,-0.1615,0.005
-1.339,-1.1145,0.224,1.2265,-0.781,-0.445,-0.038,-0.108,-0.2505,-0.2095,-0.4655,-0.397,-0.104,-0.1705,-0.011
-1.341,-1.11,0.2305,1.2255,-0.7855,-0.4395,-0.0415,-0.11,-0.2545,-0.2135,-0.4685,-0.401,-0.1055,-0.165,-0.009
-1.3425,-1.109,0.233,1.2255,-0.7875,-0.4375,-0.0435,-0.111,-0.2565,-0.216,-0.4705,-0.4025,-0.104,-0.1535,-0.006
-1.346,-1.111,0.235,1.2285,-0.79,-0.438,-0.047,-0.112,-0.26,-0.22,-0.475,-0.4065,-0.1025,-0.155,-0.005
-1.3515,-1.116,0.2345,1.2335,-0.7925,-0.4405,-0.05,-0.114,-0.2565,-0.217,-0.4725,-0.4035,-0.0985,-0.168,-0.0085
-1.354,-1.123,0.2305,1.238,-0.7915,-0.446,-0.046,-0.112,-0.25,-0.211,-0.469,-0.401,-0.1,-0.17,-0.0115
-1.3465,-1.1205,0.2255,1.2335,-0.7855,-0.4475,-0.044,-0.111,-0.2525,-0.214,-0.4705,-0.4035,-0.103,-0.163,-0.005
-1.3555,-1.1355,0.22,1.2455,-0.787,-0.4575,-0.0525,-0.12,-0.259,-0.2215,-0.4775,-0.4075,-0.101,-0.172,-0.009
-1.361,-1.139,0.222,1.2495,-0.791,-0.458,-0.053,-0.1215,-0.2605,-0.2235,-0.4775,-0.407,-0.102,-0.179,-0.0105
-1.331,-1.101,0.2295,1.216,-0.78,-0.4355,-0.038,-0.1125,-0.25,-0.215,-0.4675,-0.398,-0.1065,-0.168,-0.004
-1.3175,-1.0905,0.2265,1.204,-0.7715,-0.432,-0.0315,-0.1065,-0.246,-0.212,-0.465,-0.398,-0.109,-0.1685,-0.0055
-1.3335,-1.1135,0.22,1.223,-0.7765,-0.4465,-0.0405,-0.11,-0.2505,-0.217,-0.469,-0.3995,-0.1055,-0.173,-0.009
-1.351,-1.125,0.2255,1.238,-0.788,-0.4495,-0.0455,-0.1175,-0.256,-0.2235,-0.472,-0.4005,-0.105,-0.1635,-0.01
-1.3465,-1.122,0.224,1.234,-0.7845,-0.4485,-0.047,-0.1185,-0.258,-0.225,-0.4725,-0.4015,-0.104,-0.1775,-0.018
-1.3415,-1.1155,0.2255,1.2285,-0.783,-0.445,-0.0475,-0.1165,-0.2565,-0.223,-0.471,-0.399,-0.1015,-0.1735,-0.013
-1.346,-1.108,0.2375,1.2265,-0.7915,-0.435,-0.042,-0.116,-0.254,-0.222,-0.4705,-0.399,-0.103,-0.1535,-0.0025
-1.3455,-1.111,0.234,1.228,-0.789,-0.438,-0.0405,-0.1135,-0.2525,-0.219,-0.4695,-0.3975,-0.1025,-0.16,-0.0065
-1.351,-1.1265,0.224,1.2385,-0.787,-0.451,-0.045,-0.116,-0.257,-0.221,-0.4715,-0.4015,-0.1035,-0.1725,-0.0105
-1.352,-1.1285,0.2225,1.24,-0.7865,-0.453,-0.0435,-0.1165,-0.2555,-0.2215,-0.4715,-0.4055,-0.106,-0.179,-0.017
-1.3565,-1.1215,0.234,1.239,-0.795,-0.4435,-0.043,-0.118,-0.257,-0.222,-0.4725,-0.4055,-0.108,-0.1695,-0.0215
-1.3525,-1.1195,0.2325,1.236,-0.792,-0.4435,-0.048,-0.1225,-0.2605,-0.2245,-0.476,-0.41,-0.108,-0.163,-0.015
-1.3495,-1.1255,0.2235,1.2375,-0.786,-0.451,-0.0445,-0.119,-0.257,-0.221,-0.472,-0.4085,-0.1075,-0.165,-0.0115
-1.3615,-1.135,0.226,1.248,-0.7935,-0.4545,-0.0415,-0.119,-0.257,-0.2205,-0.473,-0.41,-0.11,-0.164,-0.0105
-1.3565,-1.1325,0.2235,1.244,-0.7895,-0.454,-0.0435,-0.115,-0.2535,-0.219,-0.473,-0.4105,-0.107,-0.165,-0.0135
-1.351,-1.136,0.2145,1.243,-0.7825,-0.46,-0.038,-0.114,-0.2505,-0.2165,-0.47,-0.405,-0.1065,-0.178,-0.0165
-1.357,-1.1455,0.211,1.251,-0.7835,-0.467,-0.032,-0.118,-0.252,-0.2175,-0.4725,-0.4075,-0.113,-0.1855,-0.016
-1.36,-1.1515,0.208,1.2555,-0.7835,-0.4715,-0.0325,-0.1155,-0.2525,-0.2175,-0.4735,-0.406,-0.1145,-0.1825,-0.0175
-1.36,-1.145,0.2145,1.2525,-0.787,-0.465,-0.0345,-0.112,-0.252,-0.2175,-0.472,-0.4065,-0.113,-0.1735,-0.018
-1.36,-1.1225,0.2375,1.241,-0.7985,-0.4425,-0.0435,-0.1195,-0.2595,-0.2255,-0.4795,-0.417,-0.115,-0.1565,-0.018
-1.3595,-1.112,0.247,1.2355,-0.8025,-0.4325,-0.051,-0.1285,-0.2675,-0.235,-0.489,-0.424,-0.117,-0.154,-0.0155
-1.3595,-1.1165,0.2425,1.238,-0.801,-0.4365,-0.044,-0.1245,-0.264,-0.2335,-0.487,-0.4205,-0.1185,-0.1575,-0.0165
-1.36,-1.1235,0.236,1.2415,-0.7975,-0.4435,-0.0385,-0.123,-0.26,-0.2285,-0.4835,-0.4145,-0.1195,-0.1635,-0.0185
-1.354,-1.1195,0.234,1.2365,-0.7935,-0.4425,-0.0395,-0.1235,-0.263,-0.227,-0.4845,-0.412,-0.1195,-0.17,-0.0175
-1.351,-1.1155,0.2345,1.233,-0.792,-0.4405,-0.044,-0.1265,-0.266,-0.2285,-0.4835,-0.414,-0.12,-0.1675,-0.0155
-1.357,-1.125,0.2315,1.241,-0.794,-0.4465,-0.0455,-0.1265,-0.266,-0.2265,-0.482,-0.413,-0.117,-0.1645,-0.014
-1.36,-1.1265,0.233,1.243,-0.7965,-0.446,-0.044,-0.124,-0.2635,-0.225,-0.4835,-0.413,-0.115,-0.1605,-0.0225
-1.3525,-1.1285,0.2235,1.2405,-0.7875,-0.4525,-0.047,-0.125,-0.2625,-0.225,-0.4835,-0.4145,-0.1145,-0.164,-0.0225
-1.352,-1.132,0.2195,1.2415,-0.7855,-0.456,-0.0465,-0.125,-0.264,-0.2235,-0.4845,-0.413,-0.115,-0.1715,-0.022
-1.3545,-1.1335,0.22,1.2435,-0.7865,-0.4565,-0.0435,-0.1225,-0.261,-0.222,-0.483,-0.4135,-0.118,-0.165,-0.0245
-1.354,-1.136,0.217,1.2445,-0.7845,-0.4595,-0.044,-0.1215,-0.259,-0.2205,-0.481,-0.411,-0.115,-0.16,-0.012
-1.3555,-1.1255,0.2295,1.24,-0.792,-0.4475,-0.048,-0.126,-0.264,-0.222,-0.481,-0.4125,-0.1135,-0.16,-0.018
-1.36,-1.1205,0.239,1.24,-0.799,-0.4405,-0.0475,-0.125,-0.2625,-0.219,-0.4785,-0.4105,-0.113,-0.156,-0.0225
-1.3625,-1.124,0.238,1.2435,-0.8,-0.4425,-0.048,-0.1235,-0.258,-0.216,-0.479,-0.409,-0.113,-0.1655,-0.03
-1.3505,-1.124,0.226,1.237,-0.7875,-0.449,-0.05,-0.1265,-0.2595,-0.218,-0.48,-0.411,-0.1135,-0.1665,-0.0325
-1.3455,-1.1215,0.2235,1.2335,-0.784,-0.449,-0.0525,-0.1255,-0.2575,-0.2165,-0.4765,-0.408,-0.1085,-0.159,-0.0175
-1.3555,-1.1215,0.233,1.2385,-0.794,-0.444,-0.054,-0.1265,-0.258,-0.2155,-0.4755,-0.409,-0.109,-0.1645,-0.0195
-1.3655,-1.12,0.245,1.2425,-0.805,-0.437,-0.058,-0.1285,-0.258,-0.216,-0.475,-0.4095,-0.109,-0.1545,-0.0155
-1.3665,-1.109,0.257,1.2375,-0.811,-0.426,-0.0635,-0.13,-0.255,-0.214,-0.473,-0.4075,-0.1045,-0.147,-0.023
-1.3505,-1.1015,0.2485,1.226,-0.799,-0.4265,-0.0595,-0.1215,-0.2445,-0.2055,-0.4655,-0.402,-0.097,-0.155,-0.036
-1.3335,-1.106,0.227,1.2195,-0.78,-0.439,-0.059,-0.1105,-0.2355,-0.1955,-0.4585,-0.395,-0.0895,-0.169,-0.047
-1.3275,-1.109,0.218,1.218,-0.7725,-0.4455,-0.0635,-0.107,-0.2315,-0.192,-0.455,-0.39,-0.083,-0.1715,-0.037
-1.3485,-1.13,0.218,1.239,-0.7825,-0.456,-0.065,-0.107,-0.2305,-0.1935,-0.4575,-0.3935,-0.0825,-0.1615,-0.01
-1.3515,-1.1365,0.2145,1.2435,-0.7825,-0.4605,-0.0625,-0.1005,-0.2265,-0.192,-0.46,-0.399,-0.0835,-0.1725,-0.027
-1.3275,-1.1205,0.2065,1.224,-0.7665,-0.4565,-0.05,-0.085,-0.214,-0.186,-0.458,-0.3965,-0.084,-0.1845,-0.039
-1.3245,-1.143,0.181,1.2335,-0.7525,-0.481,-0.034,-0.073,-0.2085,-0.187,-0.468,-0.4065,-0.092,-0.207,-0.0455
-1.321,-1.15,0.1705,1.2355,-0.745,-0.4895,-0.0115,-0.0475,-0.1845,-0.177,-0.4705,-0.4125,-0.092,-0.213,-0.064
-1.312,-1.14,0.1715,1.2255,-0.741,-0.484,0.007,-0.017,-0.1435,-0.151,-0.4575,-0.4045,-0.084,-0.2035,-0.094
-1.3115,-1.146,0.1645,1.2285,-0.7375,-0.4905,0.0415,0.0375,-0.0765,-0.104,-0.4315,-0.393,-0.0715,-0.211,-0.1565
-1.304,-1.1385,0.165,1.221,-0.734,-0.4865,0.0725,0.1,0.005,-0.0375,-0.3885,-0.371,-0.0435,-0.195,-0.2095
-1.2985,-1.135,0.1635,1.2165,-0.7305,-0.4855,0.0795,0.122,0.04,0.0,-0.3625,-0.356,-0.0235,-0.1935,-0.2215
-1.29,-1.127,0.1625,1.208,-0.7255,-0.482,0.089,0.14,0.068,0.0355,-0.335,-0.337,-0.001,-0.194,-0.2175
-1.2825,-1.114,0.168,1.198,-0.725,-0.473,0.0995,0.1685,0.1075,0.085,-0.2935,-0.308,0.0275,-0.181,-0.2305
-1.2845,-1.102,0.1815,1.193,-0.7325,-0.46,0.0965,0.1725,0.1215,0.118,-0.26,-0.2815,0.051,-0.1765,-0.224
-1.259,-1.0715,0.187,1.165,-0.7225,-0.442,0.0535,0.148,0.123,0.152,-0.2185,-0.2465,0.09,-0.1465,-0.181
-1.22,-1.0305,0.189,1.125,-0.7045,-0.4205,0.0015,0.1195,0.12,0.185,-0.1725,-0.207,0.135,-0.1155,-0.1385
-1.191,-0.9925,0.198,1.0915,-0.6945,-0.397,-0.0645,0.071,0.095,0.2015,-0.136,-0.17,0.173,-0.089,-0.0775
-1.173,-0.9535,0.219,1.063,-0.696,-0.367,-0.141,-0.0025,0.04,0.195,-0.119,-0.1445,0.195,-0.0595,0.006
-1.155,-0.9075,0.247,1.031,-0.701,-0.33,-0.2165,-0.076,-0.012,0.1885,-0.1005,-0.1195,0.221,-0.029,0.082
-1.1275,-0.8625,0.2645,0.9945,-0.696,-0.2985,-0.2975,-0.1325,-0.042,0.201,-0.0695,-0.0885,0.2605,0.0095,0.143
-1.113,-0.8125,0.3,0.9625,-0.7065,-0.256,-0.372,-0.186,-0.069,0.2145,-0.0395,-0.0595,0.293,0.054,0.196
-1.0985,-0.75,0.3475,0.924,-0.7225,-0.201,-0.4485,-0.2485,-0.1,0.2265,-0.0035,-0.025,0.326,0.1135,0.2475
-1.067,-0.6625,0.404,0.8645,-0.735,-0.129,-0.5345,-0.3095,-0.13,0.248,0.043,0.021,0.37,0.19,0.302
-1.052,-0.5975,0.454,0.8245,-0.7525,-0.0715,-0.636,-0.377,-0.172,0.255,0.0755,0.057,0.413,0.2545,0.368
-1.0375,-0.5475,0.4895,0.7925,-0.763,-0.029,-0.741,-0.4595,-0.244,0.2375,0.0965,0.0895,0.4485,0.293,0.4435
-1.025,-0.4915,0.533,0.758,-0.7785,0.021,-0.828,-0.529,-0.3045,0.227,0.124,0.1265,0.485,0.354,0.513
-1.026,-0.468,0.558,0.747,-0.7915,0.045,-0.874,-0.57,-0.35,0.2065,0.127,0.139,0.4995,0.3845,0.5485
-0.996,-0.422,0.5735,0.7085,-0.784,0.076,-0.927,-0.609,-0.397,0.185,0.134,0.1605,0.5165,0.393,0.59
-0.958,-0.3575,0.5995,0.6575,-0.778,0.121,-1.001,-0.657,-0.4515,0.1555,0.1355,0.182,0.5395,0.44,0.6655
-0.942,-0.3165,0.6245,0.629,-0.783,0.1545,-1.079,-0.725,-0.54,0.0875,0.11,0.1845,0.551,0.4795,0.7455
-0.936,-0.274,0.6615,0.6045,-0.798,0.194,-1.168,-0.8075,-0.649,0.0025,0.0815,0.1905,0.5755,0.5335,0.829
-0.928,-0.2205,0.7065,0.574,-0.8165,0.243,-1.2475,-0.896,-0.765,-0.089,0.0505,0.197,0.594,0.5875,0.9005
-0.9135,-0.173,0.7395,0.543,-0.826,0.2835,-1.3125,-0.9885,-0.89,-0.1815,0.0285,0.2115,0.6095,0.629,0.9845
-0.8905,-0.132,0.758,0.511,-0.824,0.3135,-1.359,-1.072,-1.0145,-0.2765,0.002,0.2265,0.622,0.66,1.0685
-0.8745,-0.108,0.766,0.491,-0.8195,0.329,-1.4065,-1.138,-1.107,-0.3475,-0.012,0.246,0.6475,0.6705,1.1225
-0.8535,-0.0805,0.7725,0.467,-0.8125,0.346,-1.4545,-1.1785,-1.1535,-0.368,0.022,0.2955,0.716,0.7005,1.1665
-0.8035,-0.043,0.7605,0.423,-0.7815,0.359,-1.4895,-1.1945,-1.1795,-0.361,0.085,0.3725,0.805,0.7215,1.206
-0.756,-0.003,0.7525,0.3795,-0.754,0.375,-1.5015,-1.1925,-1.1865,-0.3465,0.1515,0.4475,0.8895,0.745,1.2265
-0.7175,0.043,0.76,0.337,-0.738,0.4015,-1.5015,-1.181,-1.1805,-0.323,0.2165,0.519,0.967,0.781,1.233
-0.682,0.072,0.7535,0.3045,-0.7175,0.413,-1.499,-1.16,-1.1635,-0.292,0.2815,0.5855,1.0385,0.7945,1.235
-0.655,0.104,0.759,0.275,-0.707,0.4315,-1.486,-1.1405,-1.1435,-0.27,0.326,0.634,1.0885,0.813,1.2285
-0.632,0.1325,0.764,0.2495,-0.698,0.4485,-1.4805,-1.13,-1.137,-0.258,0.365,0.6805,1.1285,0.8345,1.2285
-0.6175,0.1535,0.77,0.2315,-0.694,0.462,-1.475,-1.0965,-1.0895,-0.213,0.4245,0.7265,1.1735,0.855,1.2115
-0.6195,0.183,0.802,0.218,-0.7105,0.493,-1.469,-1.077,-1.042,-0.16,0.4915,0.7765,1.2135,0.8905,1.1875
-0.6435,0.2155,0.858,0.214,-0.75,0.537,-1.4615,-1.1,-1.052,-0.1585,0.5235,0.803,1.222,0.935,1.183
-0.6855,0.2295,0.914,0.2275,-0.799,0.572,-1.437,-1.11,-1.055,-0.17,0.5265,0.8015,1.2035,0.971,1.164
-0.7325,0.261,0.993,0.2355,-0.8625,0.6275,-1.4205,-1.122,-1.0445,-0.158,0.557,0.819,1.2035,1.0305,1.135
-0.7755,0.332,1.107,0.2215,-0.9405,0.72,-1.4145,-1.1455,-1.0435,-0.1515,0.593,0.843,1.211,1.126,1.117
-0.8105,0.3715,1.1815,0.219,-0.9955,0.7765,-1.39,-1.1465,-1.033,-0.142,0.6185,0.86,1.2075,1.1925,1.093
-0.843,0.3885,1.231,0.227,-1.0365,0.81,-1.358,-1.1465,-1.0225,-0.14,0.626,0.8615,1.193,1.2275,1.0615
-0.858,0.4045,1.262,0.2265,-1.0595,0.8335,-1.327,-1.14,-1.012,-0.1445,0.6235,0.861,1.1825,1.254,1.035
-0.874,0.4005,1.2745,0.2365,-1.074,0.8375,-1.2935,-1.128,-1.0025,-0.156,0.607,0.851,1.161,1.2525,1.0095
-0.898,0.3845,1.2825,0.2565,-1.09,0.834,-1.257,-1.118,-1.0065,-0.1905,0.5605,0.818,1.118,1.236,0.985
-0.913,0.3495,1.262,0.2815,-1.087,0.806,-1.217,-1.081,-0.98,-0.1885,0.538,0.797,1.0895,1.2105,0.955
-0.933,0.3105,1.2435,0.311,-1.088,0.7775,-1.181,-1.052,-0.9575,-0.193,0.5105,0.7695,1.0565,1.1775,0.9175
-0.9585,0.284,1.242,0.337,-1.0995,0.763,-1.138,-1.035,-0.96,-0.2345,0.4455,0.717,1.001,1.1545,0.889
-0.989,0.2635,1.252,0.3625,-1.12,0.758,-1.092,-1.0175,-0.9605,-0.2755,0.3725,0.654,0.933,1.139,0.86
-1.008,0.2305,1.238,0.3885,-1.1225,0.7345,-1.0465,-0.993,-0.948,-0.2995,0.315,0.601,0.877,1.116,0.823
-1.011,0.1625,1.1735,0.424,-1.092,0.6685,-0.994,-0.931,-0.8935,-0.2725,0.298,0.5705,0.85,1.0585,0.777
-1.0245,0.073,1.097,0.4755,-1.0605,0.5855,-0.9235,-0.8605,-0.833,-0.247,0.2775,0.5335,0.812,0.9755,0.7195
-1.0455,-0.024,1.021,0.5345,-1.0325,0.4985,-0.842,-0.7815,-0.7675,-0.2235,0.242,0.484,0.759,0.888,0.6595
-1.059,-0.166,0.892,0.6125,-0.975,0.3635,-0.7485,-0.6755,-0.6755,-0.178,0.209,0.4305,0.7015,0.754,0.588
-1.093,-0.328,0.764,0.7105,-0.928,0.2185,-0.658,-0.591,-0.6125,-0.162,0.1545,0.3575,0.6285,0.6115,0.5205
-1.117,-0.4205,0.696,0.7685,-0.906,0.138,-0.5975,-0.541,-0.577,-0.1625,0.104,0.299,0.5655,0.524,0.4715
-1.1145,-0.4695,0.6445,0.7915,-0.879,0.0875,-0.5385,-0.4955,-0.5505,-0.1695,0.054,0.2505,0.507,0.458,0.431
-1.1295,-0.5205,0.6085,0.8245,-0.8685,0.0445,-0.495,-0.468,-0.534,-0.1865,-0.0065,0.189,0.4475,0.411,0.4015
-1.1485,-0.573,0.575,0.8605,-0.8615,0.0015,-0.466,-0.449,-0.5155,-0.1985,-0.063,0.133,0.3975,0.3695,0.372
-1.179,-0.635,0.544,0.907,-0.861,-0.045,-0.434,-0.426,-0.5045,-0.2125,-0.112,0.084,0.3545,0.326,0.34
-1.2055,-0.675,0.5305,0.94,-0.8675,-0.072,-0.4055,-0.4085,-0.491,-0.217,-0.144,0.0475,0.32,0.301,0.313
-1.2225,-0.703,0.519,0.9625,-0.8705,-0.0915,-0.3705,-0.393,-0.487,-0.2425,-0.197,-0.0035,0.268,0.2645,0.29
-1.24,-0.741,0.4985,0.99,-0.8685,-0.121,-0.3385,-0.378,-0.486,-0.271,-0.251,-0.0575,0.217,0.2305,0.2715
-1.2535,-0.7755,0.4775,1.014,-0.865,-0.149,-0.315,-0.361,-0.4715,-0.2745,-0.2745,-0.0885,0.188,0.2055,0.2515
-1.2705,-0.817,0.453,1.0435,-0.8615,-0.1815,-0.2895,-0.3415,-0.458,-0.2795,-0.3045,-0.1275,0.154,0.167,0.2265
-1.2835,-0.8535,0.4295,1.0685,-0.856,-0.212,-0.2565,-0.318,-0.4375,-0.275,-0.324,-0.1595,0.121,0.14,0.1975
-1.2975,-0.891,0.406,1.094,-0.8515,-0.242,-0.229,-0.289,-0.417,-0.2685,-0.3355,-0.1835,0.0975,0.11,0.172
-1.3025,-0.9315,0.37,1.117,-0.8355,-0.2805,-0.2025,-0.2595,-0.3915,-0.2565,-0.3495,-0.2115,0.0705,0.064,0.148
-1.294,-0.949,0.3445,1.1215,-0.8185,-0.302,-0.1785,-0.2375,-0.368,-0.242,-0.352,-0.2265,0.055,0.0335,0.129
-1.299,-0.9585,0.34,1.1285,-0.819,-0.309,-0.162,-0.2205,-0.354,-0.2365,-0.359,-0.242,0.043,0.0145,0.1015
-1.3065,-0.9845,0.321,1.145,-0.813,-0.3315,-0.137,-0.197,-0.331,-0.2255,-0.3705,-0.263,0.025,-0.019,0.058
-1.314,-1.0115,0.302,1.1625,-0.8075,-0.3545,-0.1195,-0.178,-0.315,-0.2215,-0.384,-0.2835,0.0095,-0.0445,0.0325
-1.3255,-1.029,0.296,1.177,-0.8105,-0.366,-0.104,-0.162,-0.3,-0.2135,-0.393,-0.3015,-0.0055,-0.0515,0.0295
-1.3275,-1.0495,0.2775,1.188,-0.802,-0.3855,-0.09,-0.1515,-0.2875,-0.208,-0.4015,-0.319,-0.018,-0.0695,0.022
-1.3355,-1.0585,0.2765,1.1965,-0.8055,-0.3905,-0.084,-0.144,-0.2795,-0.2075,-0.4135,-0.3355,-0.0295,-0.0855,0.0085
-1.3455,-1.068,0.2775,1.2065,-0.811,-0.395,-0.071,-0.1295,-0.2635,-0.199,-0.4165,-0.346,-0.041,-0.09,-0.0005
-1.3585,-1.082,0.276,1.22,-0.8165,-0.403,-0.0575,-0.12,-0.2535,-0.1925,-0.415,-0.3505,-0.0505,-0.079,0.012
-1.368,-1.0915,0.276,1.2295,-0.8215,-0.4075,-0.0505,-0.1175,-0.251,-0.192,-0.422,-0.358,-0.0575,-0.0835,0.011
-1.369,-1.106,0.2625,1.2375,-0.8155,-0.421,-0.0525,-0.118,-0.2535,-0.199,-0.4375,-0.3725,-0.066,-0.1085,-0.017
-1.3665,-1.116,0.2505,1.241,-0.808,-0.4325,-0.053,-0.1155,-0.25,-0.1985,-0.4425,-0.3785,-0.071,-0.1195,-0.0295
-1.357,-1.1115,0.245,1.234,-0.8005,-0.433,-0.048,-0.1105,-0.243,-0.197,-0.443,-0.3795,-0.073,-0.127,-0.0305
-1.3555,-1.1065,0.249,1.2305,-0.8015,-0.4285,-0.0415,-0.1045,-0.238,-0.196,-0.4445,-0.3815,-0.078,-0.129,-0.0275
-1.362,-1.114,0.2475,1.238,-0.8045,-0.433,-0.0335,-0.099,-0.2325,-0.193,-0.4485,-0.3845,-0.083,-0.13,-0.0315
-1.3665,-1.1155,0.2505,1.241,-0.808,-0.4325,-0.03,-0.097,-0.231,-0.1935,-0.4515,-0.3875,-0.086,-0.131,-0.037
-1.368,-1.1125,0.255,1.24,-0.811,-0.4285,-0.03,-0.095,-0.229,-0.1915,-0.451,-0.3885,-0.086,-0.1255,-0.037
-1.3615,-1.114,0.2475,1.2375,-0.804,-0.433,-0.028,-0.093,-0.225,-0.191,-0.4535,-0.389,-0.083,-0.131,-0.0485
-1.3615,-1.1225,0.239,1.242,-0.8,-0.4415,-0.0255,-0.09,-0.221,-0.1895,-0.4555,-0.3915,-0.0855,-0.1505,-0.068
-1.3645,-1.129,0.235,1.2465,-0.7995,-0.4465,-0.0175,-0.084,-0.2165,-0.189,-0.4575,-0.3945,-0.09,-0.1515,-0.057
-1.367,-1.1335,0.233,1.25,-0.7995,-0.45,-0.009,-0.076,-0.21,-0.1845,-0.4575,-0.395,-0.0925,-0.1505,-0.0465
-1.368,-1.134,0.2335,1.2505,-0.8005,-0.45,-0.012,-0.0765,-0.2105,-0.1865,-0.461,-0.399,-0.095,-0.158,-0.0545
-1.364,-1.1335,0.23,1.2485,-0.7965,-0.451,-0.0095,-0.074,-0.2085,-0.187,-0.461,-0.399,-0.095,-0.154,-0.0535
-1.3605,-1.1335,0.227,1.247,-0.7935,-0.453,-0.005,-0.0685,-0.2045,-0.182,-0.46,-0.3995,-0.096,-0.1525,-0.057
-1.3565,-1.13,0.226,1.243,-0.791,-0.4515,-0.0045,-0.0675,-0.2035,-0.1835,-0.4625,-0.4025,-0.097,-0.1545,-0.0625
-1.363,-1.139,0.224,1.251,-0.793,-0.457,-0.001,-0.0655,-0.201,-0.1835,-0.4625,-0.404,-0.0985,-0.1595,-0.0665
-1.367,-1.1435,0.223,1.255,-0.7945,-0.46,0.0005,-0.063,-0.2,-0.185,-0.466,-0.4105,-0.1025,-0.161,-0.0675
-1.37,-1.1465,0.223,1.258,-0.796,-0.4615,0.0005,-0.0655,-0.1995,-0.1875,-0.4675,-0.4125,-0.103,-0.161,-0.065
-1.379,-1.1505,0.228,1.2645,-0.803,-0.461,0.004,-0.065,-0.1985,-0.1865,-0.469,-0.4125,-0.1045,-0.159,-0.0715
-1.3815,-1.15,0.231,1.2655,-0.8055,-0.4595,0.003,-0.0595,-0.1925,-0.1835,-0.469,-0.4145,-0.1045,-0.152,-0.0715
-1.379,-1.1535,0.2245,1.266,-0.8015,-0.464,0.0045,-0.058,-0.1915,-0.1825,-0.47,-0.416,-0.1045,-0.158,-0.07
-1.375,-1.1495,0.2245,1.262,-0.799,-0.462,0.0105,-0.0535,-0.19,-0.181,-0.469,-0.4165,-0.1065,-0.1655,-0.0765
-1.3725,-1.1495,0.2225,1.261,-0.797,-0.4635,0.011,-0.0485,-0.1855,-0.176,-0.4665,-0.4135,-0.105,-0.171,-0.0845
-1.377,-1.163,0.2135,1.27,-0.795,-0.4745,0.007,-0.049,-0.185,-0.177,-0.4685,-0.4155,-0.1035,-0.187,-0.097
-1.3955,-1.1745,0.2205,1.2845,-0.8075,-0.4765,0.0025,-0.0525,-0.188,-0.18,-0.4725,-0.418,-0.1065,-0.177,-0.0795
-1.3895,-1.1655,0.2235,1.277,-0.806,-0.4705,0.0035,-0.055,-0.192,-0.183,-0.4755,-0.4205,-0.108,-0.1575,-0.0645
-1.375,-1.146,0.228,1.26,-0.801,-0.459,0.0075,-0.0515,-0.1875,-0.181,-0.474,-0.419,-0.1065,-0.1595,-0.0785
-1.378,-1.1485,0.2285,1.263,-0.803,-0.4595,0.0105,-0.048,-0.183,-0.176,-0.473,-0.417,-0.108,-0.166,-0.088
-1.378,-1.155,0.222,1.2665,-0.8,-0.466,0.012,-0.0475,-0.183,-0.178,-0.4735,-0.4185,-0.108,-0.1715,-0.0885
-1.381,-1.1555,0.225,1.268,-0.8025,-0.465,0.0155,-0.0455,-0.179,-0.174,-0.471,-0.4155,-0.108,-0.168,-0.0785
-1.375,-1.149,0.225,1.262,-0.7995,-0.462,0.0225,-0.0425,-0.1745,-0.17,-0.4685,-0.4145,-0.1105,-0.167,-0.0785
-1.3755,-1.151,0.2235,1.263,-0.799,-0.4635,0.0205,-0.0425,-0.174,-0.1725,-0.4705,-0.417,-0.1085,-0.1735,-0.092
-1.393,-1.1735,0.2195,1.283,-0.806,-0.4765,0.014,-0.0455,-0.1775,-0.1765,-0.4755,-0.423,-0.1095,-0.17,-0.083
-1.393,-1.1765,0.216,1.2845,-0.804,-0.48,0.0165,-0.045,-0.178,-0.1755,-0.4755,-0.424,-0.1125,-0.165,-0.0805
-1.3775,-1.161,0.216,1.269,-0.796,-0.4725,0.025,-0.0385,-0.173,-0.171,-0.4735,-0.422,-0.1115,-0.1645,-0.089
-1.3715,-1.151,0.2195,1.261,-0.795,-0.4655,0.0285,-0.0335,-0.1685,-0.167,-0.468,-0.4205,-0.1115,-0.1695,-0.091
-1.3855,-1.1635,0.2215,1.274,-0.803,-0.4705,0.023,-0.0385,-0.1715,-0.1705,-0.4715,-0.423,-0.112,-0.1745,-0.0885
-1.3975,-1.176,0.221,1.2865,-0.8085,-0.477,0.02,-0.0445,-0.176,-0.1765,-0.478,-0.4295,-0.117,-0.1735,-0.085
-1.381,-1.1645,0.2155,1.2725,-0.798,-0.474,0.0255,-0.0385,-0.171,-0.172,-0.4755,-0.4265,-0.116,-0.181,-0.095
-1.375,-1.1675,0.207,1.271,-0.7905,-0.48,0.022,-0.039,-0.1725,-0.174,-0.479,-0.428,-0.1135,-0.187,-0.103
-1.39,-1.1715,0.218,1.2805,-0.8035,-0.4765,0.0165,-0.046,-0.1775,-0.178,-0.4845,-0.434,-0.116,-0.174,-0.093
-1.39,-1.161,0.2285,1.2755,-0.8085,-0.466,0.019,-0.0435,-0.1735,-0.1765,-0.4845,-0.434,-0.116,-0.1645,-0.09
-1.387,-1.1665,0.22,1.2765,-0.803,-0.473,0.02,-0.0375,-0.1695,-0.1745,-0.484,-0.4345,-0.1185,-0.1725,-0.101
-1.382,-1.168,0.2135,1.275,-0.7975,-0.477,0.0225,-0.0325,-0.1665,-0.171,-0.481,-0.4345,-0.1175,-0.175,-0.101
-1.3695,-1.1555,0.2135,1.2625,-0.791,-0.471,0.03,-0.0305,-0.164,-0.1685,-0.479,-0.4325,-0.117,-0.1795,-0.1145
-1.3655,-1.1465,0.2185,1.2555,-0.7915,-0.464,0.034,-0.026,-0.16,-0.162,-0.474,-0.4275,-0.1155,-0.1685,-0.1005
-1.3755,-1.147,0.228,1.261,-0.8015,-0.459,0.0375,-0.015,-0.15,-0.153,-0.4665,-0.4205,-0.1145,-0.1635,-0.0835
-1.388,-1.1515,0.236,1.27,-0.8115,-0.4575,0.041,-0.015,-0.1495,-0.153,-0.468,-0.421,-0.117,-0.1785,-0.096
-1.3875,-1.155,0.232,1.271,-0.809,-0.4615,0.042,-0.0175,-0.153,-0.154,-0.4705,-0.424,-0.1165,-0.1745,-0.0975
-1.38,-1.1505,0.2285,1.265,-0.8035,-0.461,0.04,-0.0195,-0.153,-0.158,-0.473,-0.4275,-0.1165,-0.1715,-0.098
-1.3645,-1.1375,0.2265,1.251,-0.795,-0.4555,0.0345,-0.0225,-0.158,-0.163,-0.478,-0.4315,-0.1145,-0.169,-0.099
-1.361,-1.136,0.225,1.248,-0.7925,-0.455,0.03,-0.025,-0.1615,-0.166,-0.482,-0.436,-0.113,-0.1675,-0.1105
-1.3755,-1.1495,0.225,1.262,-0.8,-0.462,0.0295,-0.0275,-0.165,-0.1705,-0.486,-0.439,-0.114,-0.1675,-0.1075
-1.3705,-1.1505,0.2195,1.26,-0.7945,-0.465,0.0325,-0.022,-0.16,-0.1655,-0.4815,-0.435,-0.113,-0.172,-0.106
-1.3555,-1.139,0.2165,1.247,-0.7855,-0.461,0.0375,-0.017,-0.153,-0.16,-0.4765,-0.43,-0.111,-0.18,-0.113
-1.361,-1.145,0.2155,1.2525,-0.7875,-0.4645,0.0405,-0.0145,-0.1525,-0.159,-0.4765,-0.4295,-0.111,-0.178,-0.1
-1.366,-1.144,0.2215,1.255,-0.7935,-0.461,0.0405,-0.0125,-0.152,-0.1585,-0.4775,-0.429,-0.1105,-0.1685,-0.0955
-1.3695,-1.139,0.23,1.2535,-0.7995,-0.454,0.042,-0.0125,-0.1505,-0.1585,-0.479,-0.4315,-0.1125,-0.165,-0.1065
-1.3745,-1.145,0.229,1.2595,-0.801,-0.458,0.045,-0.009,-0.1495,-0.156,-0.478,-0.4315,-0.115,-0.17,-0.1095
-1.375,-1.1485,0.226,1.2615,-0.8,-0.461,0.044,-0.0085,-0.15,-0.156,-0.478,-0.431,-0.114,-0.17,-0.1045
-1.372,-1.1475,0.224,1.2595,-0.798,-0.4615,0.0455,-0.0085,-0.148,-0.1545,-0.4785,-0.431,-0.1145,-0.1745,-0.106
-1.3625,-1.141,0.221,1.2515,-0.7915,-0.46,0.043,-0.0085,-0.148,-0.1555,-0.478,-0.4305,-0.1145,-0.1765,-0.1095
-1.3665,-1.145,0.2205,1.2555,-0.793,-0.462,0.0425,-0.01,-0.151,-0.1595,-0.4835,-0.438,-0.1165,-0.1725,-0.109
-1.3625,-1.1485,0.2135,1.2555,-0.7875,-0.467,0.0495,-0.0045,-0.146,-0.154,-0.481,-0.432,-0.1155,-0.1695,-0.107
-1.3685,-1.1575,0.2105,1.263,-0.789,-0.4735,0.047,-0.006,-0.1485,-0.156,-0.481,-0.431,-0.115,-0.176,-0.123
-1.384,-1.168,0.2155,1.2755,-0.7995,-0.476,0.046,-0.0105,-0.151,-0.16,-0.4855,-0.438,-0.115,-0.1765,-0.1395
-1.382,-1.1635,0.2175,1.2725,-0.799,-0.4725,0.0445,-0.0055,-0.1465,-0.156,-0.484,-0.4365,-0.1145,-0.173,-0.1415
-1.3835,-1.1655,0.2175,1.2745,-0.8,-0.4735,0.0435,-0.0055,-0.149,-0.1585,-0.4855,-0.438,-0.116,-0.1765,-0.129
-1.377,-1.1665,0.21,1.2715,-0.793,-0.478,0.0435,-0.01,-0.1515,-0.161,-0.4875,-0.439,-0.1155,-0.172,-0.111
-1.376,-1.171,0.205,1.273,-0.79,-0.483,0.0415,-0.0065,-0.149,-0.1605,-0.487,-0.4385,-0.1145,-0.173,-0.1075
-1.375,-1.171,0.2035,1.2725,-0.789,-0.4835,0.047,-0.002,-0.1465,-0.1595,-0.4855,-0.4355,-0.114,-0.172,-0.1055
-1.3655,-1.1645,0.2005,1.265,-0.7825,-0.482,0.0475,-0.004,-0.147,-0.1625,-0.4875,-0.4375,-0.1145,-0.179,-0.117
-1.3645,-1.1615,0.203,1.263,-0.7835,-0.479,0.045,-0.0025,-0.145,-0.1605,-0.4865,-0.436,-0.1105,-0.1835,-0.1275
-1.37,-1.162,0.207,1.266,-0.788,-0.4775,0.048,-0.0005,-0.143,-0.157,-0.485,-0.434,-0.1115,-0.1845,-0.1265
-1.37,-1.1665,0.2025,1.268,-0.7855,-0.4815,0.051,0.0035,-0.14,-0.1575,-0.4845,-0.4365,-0.1135,-0.1845,-0.1195
-1.3715,-1.159,0.212,1.265,-0.7915,-0.4735,0.054,0.009,-0.1345,-0.1535,-0.4805,-0.432,-0.1105,-0.184,-0.1295
-1.3705,-1.146,0.224,1.258,-0.797,-0.461,0.0595,0.0155,-0.1305,-0.1485,-0.476,-0.4285,-0.111,-0.178,-0.143
-1.363,-1.141,0.2215,1.2515,-0.792,-0.4595,0.06,0.0175,-0.1305,-0.15,-0.478,-0.4305,-0.1125,-0.1665,-0.1305
-1.3675,-1.1485,0.2185,1.2575,-0.7925,-0.465,0.0595,0.0155,-0.1325,-0.153,-0.4835,-0.435,-0.1145,-0.169,-0.125
-1.373,-1.1615,0.2105,1.267,-0.791,-0.4755,0.0525,0.0105,-0.1375,-0.1595,-0.489,-0.4415,-0.1145,-0.1695,-0.121
-1.382,-1.1695,0.212,1.2755,-0.7965,-0.4785,0.0505,0.007,-0.141,-0.1635,-0.495,-0.446,-0.1145,-0.1675,-0.1225
-1.3835,-1.1745,0.209,1.2785,-0.796,-0.4825,0.0585,0.014,-0.136,-0.1585,-0.492,-0.4445,-0.115,-0.1695,-0.13
-1.384,-1.175,0.209,1.279,-0.796,-0.4825,0.059,0.015,-0.133,-0.158,-0.4915,-0.4455,-0.1155,-0.172,-0.1305
-1.3825,-1.1645,0.2175,1.273,-0.7995,-0.473,0.0645,0.017,-0.1315,-0.1565,-0.4935,-0.448,-0.117,-0.1665,-0.133
-1.386,-1.168,0.217,1.2765,-0.801,-0.475,0.0635,0.0195,-0.134,-0.1595,-0.496,-0.447,-0.115,-0.1655,-0.1325
-1.3895,-1.1715,0.2175,1.28,-0.803,-0.477,0.061,0.019,-0.1325,-0.161,-0.4965,-0.4465,-0.1135,-0.1675,-0.134
-1.3605,-1.144,0.216,1.252,-0.7875,-0.464,0.069,0.029,-0.1225,-0.15,-0.4885,-0.4385,-0.114,-0.1605,-0.136
-1.346,-1.1275,0.218,1.2365,-0.7815,-0.4545,0.0785,0.038,-0.1155,-0.145,-0.482,-0.4315,-0.113,-0.1645,-0.1375
-1.3495,-1.129,0.22,1.239,-0.7845,-0.454,0.0835,0.0395,-0.115,-0.146,-0.483,-0.434,-0.114,-0.1675,-0.1415
-1.363,-1.14,0.2225,1.2515,-0.7925,-0.4585,0.081,0.0385,-0.116,-0.149,-0.4875,-0.436,-0.1125,-0.165,-0.1405
-1.3735,-1.1505,0.2225,1.262,-0.7975,-0.4635,0.0775,0.036,-0.1175,-0.1525,-0.491,-0.438,-0.1135,-0.1665,-0.1385
-1.363,-1.1465,0.216,1.2545,-0.789,-0.465,0.0735,0.0365,-0.118,-0.1535,-0.49,-0.4385,-0.1135,-0.179,-0.144
-1.366,-1.1465,0.219,1.256,-0.792,-0.4635,0.076,0.041,-0.116,-0.1535,-0.488,-0.437,-0.1115,-0.1715,-0.1425
-1.3805,-1.1575,0.2225,1.2685,-0.801,-0.467,0.0775,0.04,-0.118,-0.1565,-0.4915,-0.44,-0.113,-0.158,-0.138
-1.38,-1.16,0.219,1.2695,-0.799,-0.4705,0.081,0.0425,-0.116,-0.1575,-0.493,-0.4415,-0.1165,-0.167,-0.145
-1.3775,-1.1555,0.221,1.266,-0.799,-0.467,0.084,0.0465,-0.116,-0.157,-0.4945,-0.445,-0.1185,-0.164,-0.144
-1.387,-1.165,0.2215,1.276,-0.8035,-0.4715,0.0795,0.042,-0.1195,-0.1635,-0.4985,-0.4475,-0.1175,-0.162,-0.142
-1.3845,-1.16,0.224,1.2715,-0.8035,-0.4675,0.082,0.045,-0.1155,-0.162,-0.4965,-0.4445,-0.114,-0.166,-0.1485
-1.3795,-1.1525,0.2265,1.266,-0.8025,-0.463,0.0865,0.0495,-0.1135,-0.1585,-0.496,-0.4455,-0.1125,-0.168,-0.146
-1.385,-1.161,0.2235,1.273,-0.804,-0.4685,0.086,0.0505,-0.1125,-0.1605,-0.4975,-0.451,-0.119,-0.1715,-0.152
-1.3845,-1.161,0.2225,1.2725,-0.803,-0.469,0.09,0.0535,-0.11,-0.1595,-0.4995,-0.4545,-0.1225,-0.173,-0.1705
-1.388,-1.162,0.2255,1.2745,-0.8065,-0.468,0.093,0.0545,-0.111,-0.1605,-0.503,-0.4575,-0.127,-0.1655,-0.1685
-1.392,-1.1615,0.23,1.2765,-0.8105,-0.4655,0.0945,0.058,-0.1075,-0.1595,-0.5015,-0.458,-0.1285,-0.164,-0.173
-1.391,-1.166,0.225,1.2785,-0.8075,-0.4705,0.1,0.0635,-0.1045,-0.1595,-0.503,-0.458,-0.1275,-0.1785,-0.181
-1.392,-1.1675,0.2245,1.2795,-0.808,-0.471,0.0985,0.062,-0.107,-0.1635,-0.5085,-0.46,-0.1285,-0.173,-0.169
-1.386,-1.157,0.2285,1.2715,-0.807,-0.464,0.096,0.0605,-0.103,-0.161,-0.5085,-0.458,-0.125,-0.1595,-0.164
-1.3795,-1.1495,0.229,1.264,-0.804,-0.46,0.101,0.0675,-0.103,-0.162,-0.5095,-0.456,-0.1245,-0.1605,-0.1665
-1.384,-1.156,0.228,1.2695,-0.8055,-0.464,0.1045,0.07,-0.101,-0.161,-0.511,-0.455,-0.1265,-0.1565,-0.16
-1.392,-1.1595,0.232,1.2755,-0.8115,-0.464,0.105,0.068,-0.099,-0.1605,-0.5125,-0.4555,-0.1295,-0.1525,-0.157
-1.3895,-1.153,0.236,1.271,-0.812,-0.4585,0.103,0.067,-0.102,-0.1675,-0.517,-0.457,-0.128,-0.1575,-0.1755
-1.391,-1.1525,0.238,1.2715,-0.814,-0.457,0.106,0.068,-0.1005,-0.169,-0.5195,-0.456,-0.1265,-0.1575,-0.183
-1.3895,-1.145,0.244,1.267,-0.816,-0.4505,0.109,0.071,-0.101,-0.1695,-0.5205,-0.455,-0.1265,-0.155,-0.1845
-1.384,-1.14,0.244,1.2615,-0.8135,-0.448,0.105,0.0715,-0.1005,-0.172,-0.5215,-0.4555,-0.1245,-0.1555,-0.1835
-1.3845,-1.1395,0.2445,1.262,-0.814,-0.4475,0.1075,0.0715,-0.1005,-0.173,-0.523,-0.4565,-0.126,-0.1525,-0.1725
-1.3845,-1.1385,0.2455,1.261,-0.8145,-0.446,0.109,0.073,-0.101,-0.1725,-0.523,-0.4565,-0.1275,-0.148,-0.173
-1.381,-1.1385,0.243,1.2595,-0.8115,-0.4475,0.1085,0.073,-0.101,-0.1735,-0.5235,-0.457,-0.1265,-0.147,-0.1805
-1.377,-1.135,0.2415,1.256,-0.809,-0.4465,0.1115,0.075,-0.099,-0.175,-0.5225,-0.456,-0.1265,-0.151,-0.179
-1.3835,-1.1305,0.2525,1.257,-0.8175,-0.439,0.114,0.073,-0.101,-0.1785,-0.5235,-0.457,-0.129,-0.141,-0.166
-1.3825,-1.126,0.256,1.254,-0.8185,-0.4345,0.115,0.0765,-0.101,-0.179,-0.5245,-0.4565,-0.1295,-0.1345,-0.166
-1.383,-1.1225,0.26,1.253,-0.821,-0.431,0.1155,0.08,-0.099,-0.1785,-0.524,-0.4555,-0.1285,-0.14,-0.1745
-1.3805,-1.1155,0.2645,1.2475,-0.822,-0.425,0.122,0.082,-0.098,-0.1775,-0.5235,-0.4515,-0.128,-0.139,-0.179
-1.372,-1.11,0.261,1.2405,-0.816,-0.4245,0.122,0.086,-0.095,-0.1755,-0.521,-0.4495,-0.128,-0.132,-0.178
-1.3935,-1.1235,0.27,1.258,-0.831,-0.4265,0.116,0.0825,-0.1005,-0.182,-0.527,-0.457,-0.13,-0.1195,-0.1735
-1.401,-1.1315,0.269,1.266,-0.8345,-0.431,0.1155,0.079,-0.1065,-0.189,-0.534,-0.4635,-0.1325,-0.116,-0.174
-1.394,-1.121,0.2725,1.257,-0.8325,-0.424,0.116,0.076,-0.1065,-0.1905,-0.534,-0.463,-0.1335,-0.1155,-0.1815
-1.4085,-1.1265,0.2815,1.267,-0.8445,-0.422,0.116,0.0785,-0.1085,-0.191,-0.5365,-0.466,-0.137,-0.114,-0.183
-1.425,-1.138,0.2865,1.281,-0.855,-0.425,0.1155,0.0775,-0.112,-0.196,-0.542,-0.4705,-0.14,-0.1105,-0.184
-1.4325,-1.145,0.2865,1.2885,-0.859,-0.429,0.115,0.072,-0.1165,-0.202,-0.5485,-0.475,-0.1425,-0.109,-0.191
-1.429,-1.146,0.2825,1.287,-0.8555,-0.4315,0.113,0.068,-0.122,-0.208,-0.553,-0.4805,-0.145,-0.108,-0.1835
-1.4185,-1.1245,0.293,1.2715,-0.8555,-0.4155,0.115,0.0705,-0.1205,-0.208,-0.551,-0.477,-0.1435,-0.1055,-0.18
-1.418,-1.117,0.3,1.267,-0.8585,-0.4085,0.1155,0.071,-0.1205,-0.2095,-0.5535,-0.477,-0.144,-0.101,-0.179
-1.4175,-1.118,0.2985,1.2675,-0.8575,-0.4095,0.1155,0.071,-0.122,-0.2135,-0.5545,-0.479,-0.1445,-0.0925,-0.1725
-1.4135,-1.114,0.2985,1.2635,-0.8555,-0.4075,0.114,0.0685,-0.1255,-0.219,-0.557,-0.48,-0.1455,-0.095,-0.177
-1.4145,-1.108,0.3065,1.261,-0.86,-0.4005,0.109,0.062,-0.1315,-0.2275,-0.564,-0.4835,-0.1485,-0.089,-0.1745
-1.421,-1.108,0.3125,1.2645,-0.866,-0.3975,0.114,0.0635,-0.132,-0.2285,-0.5645,-0.482,-0.1515,-0.0865,-0.1705
-1.415,-1.098,0.3165,1.2565,-0.8655,-0.3905,0.1145,0.063,-0.133,-0.2315,-0.5655,-0.478,-0.1495,-0.0855,-0.1685
-1.4005,-1.0675,0.3325,1.2335,-0.866,-0.3675,0.1145,0.0625,-0.1335,-0.2335,-0.5655,-0.475,-0.15,-0.0745,-0.1715
-1.401,-1.056,0.3445,1.2285,-0.872,-0.3555,0.1205,0.0635,-0.135,-0.2345,-0.5645,-0.474,-0.1565,-0.0715,-0.173
-1.411,-1.0685,0.342,1.2395,-0.876,-0.363,0.116,0.06,-0.1405,-0.2405,-0.571,-0.4745,-0.156,-0.068,-0.161
-1.413,-1.072,0.3405,1.242,-0.876,-0.3655,0.105,0.0485,-0.1525,-0.252,-0.5805,-0.481,-0.1545,-0.061,-0.159
-1.4,-1.064,0.3355,1.2315,-0.8675,-0.364,0.099,0.044,-0.159,-0.262,-0.5845,-0.483,-0.151,-0.058,-0.1575
-1.407,-1.063,0.3435,1.2345,-0.8745,-0.3595,0.098,0.043,-0.161,-0.2645,-0.586,-0.4815,-0.153,-0.053,-0.155
-1.4175,-1.0445,0.372,1.2305,-0.894,-0.336,0.0915,0.0325,-0.1725,-0.275,-0.5945,-0.4895,-0.1575,-0.0325,-0.159
-1.4185,-1.042,0.376,1.23,-0.8965,-0.333,0.09,0.0295,-0.1785,-0.283,-0.6005,-0.492,-0.159,-0.0345,-0.1585
-1.429,-1.057,0.3715,1.243,-0.9,-0.3425,0.0905,0.026,-0.182,-0.287,-0.6015,-0.494,-0.164,-0.042,-0.1535
-1.428,-1.0495,0.3785,1.2385,-0.903,-0.3355,0.0875,0.018,-0.19,-0.294,-0.607,-0.498,-0.1665,-0.024,-0.149
-1.4175,-1.031,0.3865,1.224,-0.9015,-0.322,0.092,0.0175,-0.1925,-0.2965,-0.609,-0.495,-0.1645,-0.0065,-0.145
-1.415,-1.018,0.396,1.216,-0.905,-0.3105,0.087,0.013,-0.199,-0.3035,-0.6125,-0.495,-0.164,-0.001,-0.1415
-1.4135,-1.016,0.397,1.2145,-0.905,-0.309,0.077,0.0025,-0.2095,-0.315,-0.6195,-0.4995,-0.1655,-0.002,-0.1425
-1.406,-1.0115,0.3945,1.2085,-0.9,-0.3085,0.074,-0.003,-0.2165,-0.321,-0.621,-0.5,-0.166,-0.0005,-0.138
-1.405,-0.999,0.4055,1.202,-0.905,-0.2965,0.0735,-0.0105,-0.2225,-0.327,-0.6225,-0.498,-0.167,0.0005,-0.1345
-1.405,-0.988,0.4165,1.1965,-0.91,-0.2855,0.07,-0.0155,-0.228,-0.3325,-0.6245,-0.4975,-0.1675,0.004,-0.133
-1.412,-0.991,0.4205,1.2015,-0.9155,-0.285,0.0645,-0.0185,-0.2325,-0.3375,-0.6245,-0.494,-0.1635,0.008,-0.125
-1.437,-0.9905,0.4455,1.2135,-0.9405,-0.272,0.062,-0.0245,-0.238,-0.343,-0.626,-0.491,-0.1645,0.0175,-0.122
-1.4415,-0.9725,0.4685,1.2065,-0.9545,-0.2515,0.061,-0.0315,-0.2465,-0.3505,-0.6295,-0.4915,-0.1675,0.04,-0.1095
-1.424,-0.9565,0.4665,1.19,-0.945,-0.2445,0.0525,-0.0475,-0.261,-0.3635,-0.636,-0.492,-0.167,0.0485,-0.0965
-1.419,-0.9525,0.466,1.1855,-0.942,-0.243,0.046,-0.057,-0.271,-0.3725,-0.643,-0.497,-0.1685,0.0455,-0.1
-1.425,-0.953,0.471,1.189,-0.9475,-0.241,0.038,-0.065,-0.2815,-0.384,-0.6475,-0.4985,-0.1685,0.0505,-0.095
-1.424,-0.9475,0.4755,1.1855,-0.9495,-0.236,0.03,-0.075,-0.2945,-0.3955,-0.6535,-0.4985,-0.169,0.0615,-0.0845
-1.4215,-0.933,0.488,1.177,-0.954,-0.2225,0.0275,-0.083,-0.305,-0.4025,-0.6565,-0.498,-0.171,0.0805,-0.078
-1.422,-0.9245,0.497,1.173,-0.959,-0.2135,0.0165,-0.0975,-0.319,-0.414,-0.662,-0.5,-0.1705,0.0895,-0.073
-1.419,-0.9155,0.503,1.167,-0.9605,-0.206,0.01,-0.1055,-0.328,-0.4225,-0.666,-0.5005,-0.169,0.093,-0.074
-1.42,-0.9095,0.51,1.1645,-0.9645,-0.1995,0.0085,-0.112,-0.336,-0.428,-0.664,-0.4965,-0.169,0.0965,-0.0665
-1.4255,-0.9075,0.5175,1.1665,-0.971,-0.195,0.0005,-0.124,-0.3475,-0.4365,-0.669,-0.4975,-0.17,0.1065,-0.055
-1.43,-0.9055,0.524,1.1675,-0.9765,-0.1905,-0.0055,-0.134,-0.3565,-0.4435,-0.672,-0.497,-0.1705,0.1155,-0.049
-1.427,-0.899,0.5275,1.163,-0.977,-0.1855,-0.012,-0.146,-0.369,-0.4525,-0.672,-0.497,-0.1715,0.117,-0.045
-1.429,-0.8865,0.5415,1.1575,-0.9845,-0.1725,-0.019,-0.1575,-0.3805,-0.461,-0.6755,-0.4975,-0.172,0.133,-0.036
-1.4175,-0.868,0.5485,1.1425,-0.9825,-0.1595,-0.028,-0.167,-0.391,-0.468,-0.679,-0.4975,-0.167,0.145,-0.025
-1.4045,-0.845,0.559,1.1245,-0.981,-0.143,-0.0375,-0.182,-0.4045,-0.48,-0.6835,-0.4985,-0.168,0.155,-0.024
-1.423,-0.848,0.575,1.1355,-0.9985,-0.136,-0.0435,-0.194,-0.416,-0.488,-0.687,-0.4995,-0.1715,0.1665,-0.0115
-1.428,-0.849,0.5785,1.1385,-1.003,-0.135,-0.0535,-0.2055,-0.4265,-0.496,-0.6895,-0.4985,-0.1685,0.162,-0.0185
-1.429,-0.8425,0.5865,1.1355,-1.0075,-0.128,-0.064,-0.218,-0.438,-0.505,-0.6925,-0.498,-0.1685,0.166,-0.0065
-1.4355,-0.8375,0.5975,1.136,-1.016,-0.1195,-0.0725,-0.2305,-0.4505,-0.514,-0.695,-0.4985,-0.168,0.1855,0.03
-1.4365,-0.8285,0.6075,1.1325,-1.0215,-0.1105,-0.0815,-0.2445,-0.4625,-0.524,-0.6985,-0.496,-0.1665,0.1955,0.03
-1.4365,-0.823,0.6125,1.1295,-1.024,-0.105,-0.0895,-0.255,-0.4725,-0.531,-0.701,-0.497,-0.167,0.196,0.0305
-1.4345,-0.813,0.621,1.1235,-1.027,-0.096,-0.0965,-0.2665,-0.4835,-0.538,-0.703,-0.495,-0.166,0.2065,0.0405
-1.4345,-0.807,0.627,1.1205,-1.03,-0.09,-0.105,-0.2775,-0.4935,-0.5425,-0.7025,-0.4915,-0.1625,0.2155,0.0535
-1.4275,-0.7935,0.6335,1.1105,-1.03,-0.0795,-0.1135,-0.289,-0.5015,-0.5475,-0.701,-0.4905,-0.16,0.217,0.055
-1.406,-0.775,0.6305,1.09,-1.0175,-0.072,-0.122,-0.3005,-0.51,-0.5525,-0.7015,-0.4855,-0.156,0.2265,0.061
-1.392,-0.7675,0.624,1.0795,-1.0075,-0.0715,-0.1315,-0.3115,-0.5215,-0.5585,-0.7025,-0.4855,-0.154,0.223,0.065
-1.406,-0.7675,0.638,1.0865,-1.0215,-0.0645,-0.1395,-0.324,-0.533,-0.5655,-0.7045,-0.484,-0.1515,0.2195,0.063
-1.4125,-0.7645,0.6475,1.0885,-1.0295,-0.0585,-0.1435,-0.332,-0.5385,-0.5665,-0.701,-0.477,-0.1465,0.2315,0.0715
-1.419,-0.76,0.6585,1.089,-1.0385,-0.0505,-0.1545,-0.342,-0.5465,-0.572,-0.7025,-0.4765,-0.143,0.2535,0.095
-1.429,-0.7575,0.671,1.093,-1.0495,-0.043,-0.1635,-0.353,-0.556,-0.578,-0.704,-0.476,-0.141,0.2625,0.109
-1.4265,-0.75,0.6765,1.088,-1.051,-0.0365,-0.1665,-0.362,-0.5645,-0.5815,-0.702,-0.475,-0.139,0.2605,0.0985
-1.4195,-0.7465,0.6725,1.0825,-1.0455,-0.0365,-0.1825,-0.3725,-0.573,-0.588,-0.7035,-0.474,-0.1315,0.266,0.1065
-1.419,-0.7495,0.669,1.084,-1.0435,-0.04,-0.1875,-0.378,-0.576,-0.587,-0.7005,-0.4695,-0.1285,0.2625,0.1125
-1.417,-0.748,0.669,1.082,-1.0425,-0.039,-0.19,-0.3805,-0.5775,-0.584,-0.6945,-0.4635,-0.1245,0.264,0.116
-1.413,-0.7455,0.667,1.0785,-1.0395,-0.0385,-0.201,-0.3865,-0.581,-0.585,-0.6915,-0.4615,-0.118,0.2705,0.1225
-1.407,-0.736,0.6705,1.0715,-1.0385,-0.0325,-0.203,-0.3875,-0.5805,-0.581,-0.6855,-0.4565,-0.113,0.2725,0.124
-1.3935,-0.723,0.6695,1.058,-1.031,-0.0265,-0.197,-0.3825,-0.5745,-0.5715,-0.674,-0.447,-0.1115,0.269,0.1285
-1.3765,-0.7125,0.6635,1.0445,-1.0195,-0.024,-0.1965,-0.383,-0.571,-0.5665,-0.667,-0.4425,-0.1085,0.258,0.133
-1.3715,-0.712,0.659,1.0415,-1.0145,-0.0265,-0.201,-0.3825,-0.5705,-0.562,-0.6625,-0.44,-0.1055,0.2535,0.138
-1.3815,-0.7285,0.652,1.0545,-1.016,-0.038,-0.207,-0.3835,-0.572,-0.5605,-0.66,-0.4395,-0.105,0.251,0.1375
-1.3865,-0.744,0.642,1.065,-1.0135,-0.051,-0.21,-0.3855,-0.57,-0.5535,-0.6545,-0.4365,-0.1005,0.2465,0.139
-1.3875,-0.755,0.6325,1.071,-1.0095,-0.061,-0.204,-0.3805,-0.5645,-0.5465,-0.6485,-0.433,-0.0995,0.235,0.1345
-1.386,-0.7595,0.626,1.0725,-1.0055,-0.0665,-0.2055,-0.381,-0.561,-0.5435,-0.6455,-0.4355,-0.0975,0.23,0.13
-1.382,-0.763,0.6185,1.0725,-0.9995,-0.072,-0.2075,-0.3785,-0.554,-0.5335,-0.638,-0.4325,-0.093,0.2265,0.128
-1.3845,-0.781,0.603,1.0825,-0.993,-0.089,-0.2025,-0.3685,-0.545,-0.5225,-0.6285,-0.426,-0.0905,0.213,0.1315
-1.385,-0.791,0.5935,1.088,-0.9885,-0.0985,-0.1995,-0.3615,-0.5365,-0.51,-0.62,-0.4235,-0.089,0.2035,0.128
-1.3765,-0.792,0.584,1.084,-0.9795,-0.1035,-0.1955,-0.356,-0.528,-0.4995,-0.6105,-0.4155,-0.0875,0.1935,0.1235
-1.374,-0.804,0.5695,1.089,-0.971,-0.117,-0.193,-0.3485,-0.518,-0.489,-0.6035,-0.4145,-0.086,0.1865,0.131
-1.3755,-0.8165,0.558,1.0955,-0.966,-0.129,-0.1895,-0.3405,-0.5075,-0.4765,-0.5975,-0.415,-0.0825,0.176,0.121
-1.384,-0.8355,0.548,1.1095,-0.9655,-0.1435,-0.1875,-0.3375,-0.503,-0.469,-0.5955,-0.4135,-0.081,0.16,0.1105
-1.39,-0.8485,0.541,1.119,-0.965,-0.1535,-0.19,-0.3375,-0.5015,-0.466,-0.5975,-0.42,-0.082,0.15,0.0955
-1.384,-0.855,0.528,1.1195,-0.9555,-0.1635,-0.1845,-0.327,-0.4905,-0.454,-0.5875,-0.417,-0.0775,0.146,0.096
-1.382,-0.8665,0.515,1.124,-0.948,-0.1755,-0.178,-0.3185,-0.479,-0.44,-0.58,-0.412,-0.075,0.1375,0.1005
-1.3755,-0.8745,0.501,1.1245,-0.9375,-0.1865,-0.179,-0.309,-0.47,-0.427,-0.573,-0.408,-0.071,0.124,0.0955
-1.3795,-0.883,0.496,1.131,-0.9375,-0.1935,-0.178,-0.3015,-0.4605,-0.4145,-0.567,-0.4055,-0.069,0.1105,0.0955
-1.3745,-0.8845,0.4895,1.1295,-0.9315,-0.1975,-0.1705,-0.2945,-0.45,-0.4045,-0.5615,-0.403,-0.0675,0.103,0.0775
-1.3595,-0.8885,0.4705,1.124,-0.915,-0.2085,-0.166,-0.285,-0.44,-0.3945,-0.5545,-0.4005,-0.064,0.0945,0.0785
-1.3715,-0.9095,0.461,1.1405,-0.9155,-0.224,-0.1675,-0.286,-0.437,-0.392,-0.556,-0.406,-0.065,0.0865,0.0885
-1.384,-0.9275,0.4555,1.1555,-0.9195,-0.2355,-0.167,-0.283,-0.433,-0.3865,-0.554,-0.4075,-0.0625,0.0725,0.0845
-1.382,-0.9335,0.448,1.1575,-0.9145,-0.2425,-0.1635,-0.2725,-0.4245,-0.3775,-0.5485,-0.4065,-0.0615,0.056,0.084
-1.3685,-0.93,0.4385,1.149,-0.903,-0.2455,-0.158,-0.2675,-0.417,-0.3705,-0.544,-0.4055,-0.062,0.058,0.086
-1.3645,-0.936,0.428,1.15,-0.8955,-0.254,-0.156,-0.263,-0.4095,-0.3625,-0.5405,-0.4025,-0.057,0.0575,0.0855
-1.373,-0.958,0.414,1.1655,-0.893,-0.272,-0.1525,-0.255,-0.4015,-0.356,-0.538,-0.4015,-0.0565,0.042,0.064
-1.383,-0.9735,0.4095,1.178,-0.896,-0.2815,-0.154,-0.2555,-0.401,-0.3545,-0.5395,-0.405,-0.058,0.008,0.018
-1.3825,-0.9735,0.4085,1.1775,-0.895,-0.2825,-0.1495,-0.25,-0.3935,-0.347,-0.5345,-0.4035,-0.057,0.0035,0.0205
-1.3755,-0.9745,0.4,1.1745,-0.887,-0.287,-0.145,-0.2415,-0.3825,-0.336,-0.525,-0.399,-0.0535,0.021,0.054
-1.379,-0.993,0.386,1.186,-0.882,-0.3035,-0.144,-0.2395,-0.38,-0.331,-0.5235,-0.4,-0.0525,0.0175,0.0665
-1.3755,-0.995,0.3795,1.185,-0.877,-0.3075,-0.14,-0.2355,-0.3765,-0.3265,-0.523,-0.403,-0.055,0.017,0.071
-1.37,-0.992,0.3775,1.1805,-0.873,-0.307,-0.1415,-0.2295,-0.371,-0.3205,-0.5195,-0.404,-0.0525,0.003,0.057
-1.378,-1.0055,0.372,1.1915,-0.8745,-0.3165,-0.1365,-0.223,-0.364,-0.3135,-0.5165,-0.4025,-0.054,-0.0085,0.039
-1.3805,-1.008,0.372,1.194,-0.8755,-0.3175,-0.1315,-0.2205,-0.36,-0.309,-0.5125,-0.403,-0.0555,-0.0075,0.042
-1.381,-1.0125,0.368,1.1965,-0.874,-0.322,-0.1315,-0.219,-0.3565,-0.307,-0.51,-0.403,-0.054,-0.01,0.0505
-1.3795,-1.0125,0.366,1.1955,-0.872,-0.323,-0.1275,-0.213,-0.3525,-0.3045,-0.5105,-0.4035,-0.056,-0.0115,0.048
-1.377,-1.0135,0.3625,1.195,-0.8695,-0.325,-0.1255,-0.2075,-0.3465,-0.2975,-0.5055,-0.4035,-0.056,-0.0145,0.0505
-1.3885,-1.027,0.361,1.2075,-0.8745,-0.3325,-0.127,-0.2115,-0.346,-0.298,-0.508,-0.4095,-0.058,-0.0105,0.056
-1.3915,-1.032,0.359,1.2115,-0.875,-0.336,-0.1245,-0.209,-0.345,-0.297,-0.509,-0.413,-0.059,-0.0155,0.0515
-1.382,-1.032,0.3495,1.2065,-0.865,-0.341,-0.122,-0.204,-0.341,-0.2915,-0.5065,-0.4115,-0.056,-0.0235,0.0435
-1.3795,-1.0335,0.3455,1.2065,-0.862,-0.3435,-0.1225,-0.2035,-0.34,-0.2915,-0.5075,-0.413,-0.0565,-0.0295,0.0365
-1.379,-1.0405,0.338,1.21,-0.858,-0.351,-0.1205,-0.1995,-0.336,-0.2885,-0.5055,-0.413,-0.056,-0.0355,0.036
-1.381,-1.0435,0.3375,1.212,-0.8585,-0.353,-0.1205,-0.1985,-0.334,-0.285,-0.5055,-0.414,-0.0535,-0.03,0.0375
-1.387,-1.046,0.3405,1.2165,-0.8635,-0.3525,-0.1215,-0.197,-0.3315,-0.283,-0.505,-0.4145,-0.0545,-0.0345,0.035
-1.388,-1.052,0.3355,1.22,-0.861,-0.358,-0.118,-0.197,-0.3275,-0.2795,-0.502,-0.4115,-0.054,-0.0395,0.0335
-1.3785,-1.049,0.329,1.213,-0.853,-0.36,-0.114,-0.1965,-0.3245,-0.2765,-0.499,-0.411,-0.0555,-0.044,0.0335
-1.3765,-1.0535,0.3225,1.2145,-0.849,-0.365,-0.114,-0.192,-0.322,-0.273,-0.4995,-0.411,-0.055,-0.051,0.0315
-1.3835,-1.0635,0.319,1.2235,-0.8505,-0.372,-0.1105,-0.187,-0.318,-0.27,-0.4965,-0.411,-0.056,-0.0605,0.03
-1.3705,-1.054,0.316,1.212,-0.8425,-0.369,-0.1055,-0.1825,-0.3125,-0.2665,-0.4935,-0.408,-0.058,-0.0635,0.0285
-1.3615,-1.046,0.3155,1.2035,-0.838,-0.365,-0.104,-0.1785,-0.3085,-0.2635,-0.493,-0.4055,-0.058,-0.056,0.031
-1.367,-1.049,0.318,1.2075,-0.842,-0.3655,-0.101,-0.175,-0.305,-0.258,-0.4875,-0.4045,-0.0605,-0.057,0.032
-1.37,-1.052,0.3175,1.2105,-0.843,-0.367,-0.101,-0.1755,-0.3045,-0.258,-0.4885,-0.406,-0.059,-0.0645,0.0235
-1.3735,-1.058,0.315,1.2155,-0.8435,-0.3715,-0.1025,-0.178,-0.307,-0.261,-0.493,-0.412,-0.0615,-0.066,0.0275
-1.376,-1.06,0.315,1.2175,-0.845,-0.372,-0.1045,-0.1795,-0.308,-0.2595,-0.495,-0.4125,-0.062,-0.0615,0.0325
-1.3765,-1.0645,0.3115,1.2205,-0.8435,-0.3765,-0.1045,-0.179,-0.308,-0.258,-0.496,-0.414,-0.0625,-0.065,0.026
-1.38,-1.0715,0.3085,1.2255,-0.844,-0.381,-0.1035,-0.1775,-0.3055,-0.2565,-0.494,-0.414,-0.0635,-0.067,0.023
-1.375,-1.068,0.3065,1.221,-0.84,-0.3805,-0.102,-0.173,-0.3015,-0.251,-0.4915,-0.4105,-0.0605,-0.064,0.027
-1.3765,-1.0705,0.3055,1.223,-0.8405,-0.382,-0.101,-0.1735,-0.3025,-0.2515,-0.4925,-0.4125,-0.064,-0.0655,0.0275
-1.383,-1.0795,0.303,1.231,-0.8425,-0.388,-0.105,-0.177,-0.3045,-0.254,-0.4955,-0.4145,-0.0635,-0.072,0.024
-1.382,-1.0765,0.305,1.229,-0.843,-0.3855,-0.1035,-0.174,-0.304,-0.254,-0.497,-0.417,-0.0625,-0.0655,0.024
-1.39,-1.0715,0.318,1.2305,-0.8535,-0.3765,-0.1075,-0.1765,-0.3055,-0.255,-0.4975,-0.4215,-0.0625,-0.0575,0.0215
-1.3965,-1.08,0.3155,1.238,-0.8555,-0.382,-0.107,-0.1775,-0.304,-0.254,-0.4965,-0.4185,-0.062,-0.0615,0.021
-1.396,-1.0925,0.303,1.244,-0.849,-0.3945,-0.107,-0.1795,-0.3065,-0.2575,-0.498,-0.42,-0.063,-0.068,0.0215
-1.386,-1.0945,0.291,1.24,-0.838,-0.4015,-0.109,-0.1795,-0.306,-0.2575,-0.4995,-0.4235,-0.062,-0.071,0.0225
-1.384,-1.0935,0.29,1.2385,-0.8365,-0.4015,-0.101,-0.1735,-0.302,-0.252,-0.497,-0.4205,-0.0625,-0.0705,0.022
-1.3805,-1.0915,0.288,1.236,-0.834,-0.4015,-0.106,-0.174,-0.303,-0.253,-0.4965,-0.418,-0.0585,-0.0765,0.0255
-1.382,-1.0995,0.2825,1.2405,-0.8315,-0.408,-0.1145,-0.1805,-0.306,-0.257,-0.5005,-0.421,-0.0545,-0.088,0.0295
-1.3865,-1.0945,0.2915,1.2405,-0.8385,-0.4015,-0.112,-0.1805,-0.307,-0.2565,-0.5015,-0.4245,-0.0575,-0.089,0.025
-1.382,-1.0835,0.298,1.233,-0.8395,-0.3925,-0.113,-0.1785,-0.3055,-0.2545,-0.5005,-0.426,-0.059,-0.0825,0.0225
-1.3855,-1.0875,0.297,1.2365,-0.841,-0.395,-0.114,-0.1785,-0.3055,-0.2555,-0.501,-0.426,-0.0575,-0.0795,0.0255
-1.3805,-1.0805,0.2995,1.2305,-0.8395,-0.39,-0.1055,-0.1735,-0.3015,-0.252,-0.498,-0.4235,-0.059,-0.0775,0.0235
-1.3745,-1.077,0.297,1.2255,-0.8355,-0.3895,-0.106,-0.171,-0.2965,-0.247,-0.4945,-0.42,-0.057,-0.0785,0.0215
-1.373,-1.0765,0.296,1.2245,-0.834,-0.3895,-0.1075,-0.1715,-0.297,-0.2465,-0.494,-0.4185,-0.0545,-0.076,0.022
-1.3805,-1.0795,0.301,1.23,-0.8405,-0.389,-0.1075,-0.1735,-0.3005,-0.2485,-0.4955,-0.4215,-0.056,-0.077,0.0145
-1.3915,-1.095,0.2965,1.243,-0.8435,-0.399,-0.1095,-0.1745,-0.3015,-0.2505,-0.499,-0.4265,-0.0585,-0.073,0.0235
-1.3905,-1.0975,0.292,1.2435,-0.8405,-0.4025,-0.1095,-0.1735,-0.302,-0.2495,-0.499,-0.428,-0.058,-0.071,0.033
-1.388,-1.091,0.297,1.239,-0.842,-0.397,-0.113,-0.1745,-0.303,-0.2505,-0.5005,-0.4285,-0.057,-0.0685,0.025
-1.393,-1.094,0.2985,1.243,-0.845,-0.3975,-0.121,-0.1825,-0.309,-0.257,-0.5055,-0.431,-0.0585,-0.07,0.025
-1.3815,-1.09,0.291,1.2355,-0.8355,-0.3995,-0.12,-0.18,-0.306,-0.255,-0.5025,-0.4275,-0.054,-0.0785,0.022
-1.369,-1.0825,0.2855,1.2255,-0.8265,-0.3985,-0.115,-0.1725,-0.302,-0.2505,-0.5,-0.4265,-0.0535,-0.071,0.023
-1.382,-1.0915,0.29,1.2365,-0.8355,-0.4005,-0.115,-0.1805,-0.3075,-0.256,-0.505,-0.4305,-0.0565,-0.0925,0.021
-1.3875,-1.0915,0.296,1.2395,-0.841,-0.3975,-0.1165,-0.1805,-0.306,-0.2555,-0.5035,-0.429,-0.054,-0.091,0.021
-1.3785,-1.083,0.295,1.2305,-0.8365,-0.394,-0.117,-0.178,-0.3065,-0.253,-0.5025,-0.4275,-0.053,-0.065,0.0325
-1.375,-1.087,0.287,1.2305,-0.8305,-0.3995,-0.1175,-0.179,-0.3085,-0.256,-0.5035,-0.4295,-0.053,-0.0735,0.027
-1.3705,-1.089,0.281,1.2295,-0.8255,-0.4035,-0.115,-0.1785,-0.306,-0.255,-0.5025,-0.429,-0.054,-0.08,0.019
-1.367,-1.0885,0.278,1.2275,-0.822,-0.405,-0.1115,-0.1775,-0.305,-0.254,-0.5025,-0.4295,-0.053,-0.0835,0.0185
-1.38,-1.094,0.2855,1.237,-0.8325,-0.404,-0.115,-0.175,-0.303,-0.254,-0.5015,-0.4305,-0.0555,-0.0895,0.0165
-1.3975,-1.0925,0.3045,1.2445,-0.8505,-0.3935,-0.1085,-0.1685,-0.295,-0.2445,-0.492,-0.4195,-0.0545,-0.0885,0.0225
-1.401,-1.0915,0.3095,1.246,-0.855,-0.391,-0.11,-0.1675,-0.294,-0.243,-0.49,-0.4185,-0.0515,-0.0825,0.0295
-1.392,-1.093,0.2985,1.2425,-0.8445,-0.397,-0.113,-0.1725,-0.298,-0.2475,-0.4975,-0.424,-0.0545,-0.0895,0.0235
-1.3875,-1.097,0.29,1.242,-0.8385,-0.403,-0.11,-0.173,-0.299,-0.247,-0.4975,-0.425,-0.055,-0.0875,0.0175
-1.3705,-1.091,0.279,1.2305,-0.824,-0.4055,-0.111,-0.1715,-0.2985,-0.247,-0.498,-0.423,-0.052,-0.083,0.0135
-1.368,-1.0825,0.2855,1.225,-0.8265,-0.3985,-0.109,-0.174,-0.2975,-0.246,-0.4965,-0.4205,-0.0505,-0.0765,0.0275
-1.392,-1.0935,0.2975,1.2425,-0.844,-0.398,-0.1105,-0.1745,-0.297,-0.2465,-0.495,-0.421,-0.051,-0.0775,0.033
-1.3935,-1.0985,0.2945,1.2455,-0.8435,-0.402,-0.111,-0.171,-0.2965,-0.2475,-0.496,-0.4215,-0.0485,-0.087,0.0275
-1.3895,-1.089,0.3,1.2395,-0.8445,-0.3945,-0.113,-0.172,-0.3015,-0.252,-0.4985,-0.4245,-0.0475,-0.0875,0.02
-1.3835,-1.085,0.298,1.234,-0.84,-0.3935,-0.116,-0.1775,-0.2995,-0.25,-0.499,-0.4225,-0.046,-0.088,0.0115
-1.3825,-1.086,0.296,1.234,-0.839,-0.3945,-0.113,-0.177,-0.295,-0.246,-0.4945,-0.421,-0.0475,-0.073,0.0345
-1.3945,-1.0895,0.304,1.242,-0.8485,-0.3925,-0.1065,-0.1705,-0.294,-0.2465,-0.4945,-0.421,-0.051,-0.069,0.034
-1.3985,-1.099,0.2995,1.2485,-0.8485,-0.3995,-0.108,-0.172,-0.295,-0.2485,-0.496,-0.422,-0.052,-0.076,0.021
-1.3935,-1.096,0.2975,1.2445,-0.845,-0.399,-0.1135,-0.1775,-0.2985,-0.254,-0.499,-0.425,-0.05,-0.077,0.0245
-1.3905,-1.084,0.306,1.237,-0.8475,-0.389,-0.1165,-0.18,-0.301,-0.2555,-0.503,-0.427,-0.0505,-0.077,0.023
-1.3805,-1.081,0.299,1.2305,-0.839,-0.391,-0.1175,-0.1795,-0.3,-0.2535,-0.4985,-0.424,-0.049,-0.0835,0.0235
-1.382,-1.0905,0.291,1.236,-0.836,-0.3995,-0.12,-0.179,-0.301,-0.254,-0.4995,-0.4265,-0.0465,-0.0815,0.03
-1.39,-1.094,0.296,1.242,-0.8425,-0.399,-0.1205,-0.181,-0.3025,-0.256,-0.503,-0.431,-0.049,-0.07,0.0275
-1.386,-1.0885,0.2965,1.237,-0.841,-0.396,-0.1175,-0.1805,-0.3015,-0.254,-0.5015,-0.4295,-0.0505,-0.0735,0.03
-1.3895,-1.0915,0.2975,1.2405,-0.843,-0.397,-0.119,-0.1835,-0.3045,-0.257,-0.5045,-0.433,-0.054,-0.09,0.0105
-1.3805,-1.0935,0.2865,1.237,-0.833,-0.403,-0.1155,-0.179,-0.3005,-0.254,-0.502,-0.428,-0.0535,-0.0965,0.0065
-1.376,-1.0895,0.286,1.2325,-0.8305,-0.4015,-0.1145,-0.1765,-0.297,-0.25,-0.5,-0.425,-0.05,-0.085,0.027
-1.383,-1.0885,0.2935,1.2355,-0.8375,-0.3975,-0.1165,-0.181,-0.3005,-0.253,-0.501,-0.426,-0.048,-0.083,0.0115
-1.3625,-1.0675,0.294,1.215,-0.828,-0.3865,-0.105,-0.1695,-0.291,-0.243,-0.492,-0.4155,-0.051,-0.0795,0.022
-1.3555,-1.0565,0.2985,1.2055,-0.8265,-0.3785,-0.101,-0.1655,-0.286,-0.2395,-0.489,-0.413,-0.053,-0.076,0.031
-1.365,-1.0695,0.295,1.217,-0.8295,-0.387,-0.1055,-0.169,-0.2895,-0.2435,-0.492,-0.415,-0.0495,-0.076,0.025
-1.3715,-1.073,0.298,1.222,-0.834,-0.387,-0.1075,-0.1715,-0.2935,-0.245,-0.4945,-0.4145,-0.05,-0.073,0.0255
-1.379,-1.077,0.302,1.228,-0.84,-0.387,-0.1085,-0.1745,-0.2955,-0.247,-0.4975,-0.417,-0.0505,-0.071,0.021
-1.3745,-1.0735,0.3005,1.2235,-0.837,-0.386,-0.107,-0.171,-0.293,-0.2455,-0.495,-0.4155,-0.0485,-0.0695,0.026
-1.374,-1.0695,0.3035,1.2215,-0.838,-0.383,-0.107,-0.172,-0.294,-0.2435,-0.4925,-0.4155,-0.0485,-0.0715,0.0265
-1.369,-1.0635,0.3055,1.216,-0.8365,-0.379,-0.106,-0.172,-0.2925,-0.243,-0.492,-0.416,-0.0505,-0.0665,0.022
-1.363,-1.058,0.3045,1.21,-0.8335,-0.3765,-0.1045,-0.172,-0.291,-0.243,-0.4905,-0.415,-0.05,-0.0715,0.015
-1.3695,-1.064,0.3045,1.2165,-0.8365,-0.3795,-0.1035,-0.171,-0.292,-0.2415,-0.4915,-0.417,-0.0505,-0.0785,0.018
-1.3675,-1.065,0.302,1.216,-0.834,-0.381,-0.1055,-0.1695,-0.291,-0.242,-0.492,-0.416,-0.0485,-0.077,0.0295
-1.3725,-1.066,0.306,1.219,-0.8385,-0.3795,-0.1045,-0.17,-0.2905,-0.243,-0.4915,-0.415,-0.0485,-0.0775,0.022
-1.377,-1.065,0.312,1.221,-0.844,-0.3765,-0.104,-0.1695,-0.291,-0.243,-0.4905,-0.415,-0.049,-0.073,0.016
-1.3695,-1.058,0.311,1.2135,-0.84,-0.3735,-0.103,-0.167,-0.2885,-0.2405,-0.489,-0.4115,-0.045,-0.0705,0.0195
-1.357,-1.0525,0.3035,1.2045,-0.8295,-0.374,-0.1015,-0.1645,-0.2855,-0.2375,-0.4875,-0.408,-0.0435,-0.0725,0.0205
-1.3435,-1.051,0.292,1.197,-0.8175,-0.379,-0.102,-0.1645,-0.2865,-0.2375,-0.487,-0.407,-0.0425,-0.0755,0.0275
-1.3505,-1.063,0.287,1.2065,-0.818,-0.3875,-0.104,-0.17,-0.2905,-0.2435,-0.4915,-0.4105,-0.042,-0.084,0.0215
-1.3605,-1.0745,0.286,1.217,-0.8225,-0.394,-0.1095,-0.173,-0.2945,-0.247,-0.496,-0.4135,-0.0405,-0.0915,0.016
-1.365,-1.0715,0.293,1.218,-0.8285,-0.389,-0.1065,-0.1695,-0.291,-0.245,-0.493,-0.411,-0.0395,-0.086,0.021
-1.364,-1.0725,0.2915,1.218,-0.8275,-0.39,-0.1035,-0.169,-0.291,-0.244,-0.491,-0.409,-0.04,-0.0865,0.023
-1.3585,-1.0695,0.289,1.214,-0.823,-0.39,-0.102,-0.1665,-0.289,-0.241,-0.4895,-0.407,-0.0405,-0.086,0.0295
-1.3585,-1.063,0.2945,1.2105,-0.826,-0.384,-0.098,-0.161,-0.282,-0.2375,-0.487,-0.4035,-0.041,-0.079,0.029
-1.366,-1.0715,0.294,1.2185,-0.8295,-0.3885,-0.099,-0.1635,-0.286,-0.24,-0.491,-0.4085,-0.0455,-0.0735,0.031
-1.3725,-1.0765,0.295,1.224,-0.8335,-0.3905,-0.104,-0.17,-0.291,-0.2455,-0.4965,-0.414,-0.0455,-0.0775,0.025
-1.367,-1.075,0.2915,1.221,-0.829,-0.3915,-0.101,-0.166,-0.2875,-0.2425,-0.4935,-0.409,-0.0425,-0.0865,0.0125
-1.3675,-1.069,0.298,1.218,-0.8325,-0.3855,-0.097,-0.162,-0.286,-0.2415,-0.4915,-0.409,-0.0455,-0.0825,0.0165
-1.3745,-1.0645,0.3095,1.2195,-0.8415,-0.3775,-0.0965,-0.164,-0.2865,-0.243,-0.4925,-0.41,-0.047,-0.0785,0.019
-1.377,-1.071,0.306,1.2235,-0.841,-0.3825,-0.0975,-0.1655,-0.29,-0.244,-0.495,-0.411,-0.047,-0.09,0.0095
-1.38,-1.074,0.3055,1.2265,-0.842,-0.384,-0.098,-0.1665,-0.2915,-0.246,-0.498,-0.416,-0.05,-0.09,0.01
-1.3815,-1.0765,0.304,1.2285,-0.8425,-0.386,-0.099,-0.1685,-0.2915,-0.245,-0.4955,-0.4125,-0.0485,-0.0715,0.024
-1.3915,-1.086,0.305,1.2385,-0.8475,-0.39,-0.096,-0.1695,-0.295,-0.2485,-0.5,-0.418,-0.0515,-0.0675,0.0195
-1.3825,-1.0765,0.3055,1.2295,-0.8435,-0.3855,-0.0925,-0.166,-0.2915,-0.2475,-0.499,-0.419,-0.055,-0.0715,0.017
-1.357,-1.054,0.3025,1.205,-0.8295,-0.3755,-0.097,-0.163,-0.2865,-0.241,-0.4925,-0.413,-0.0515,-0.0795,0.018
-1.351,-1.045,0.3055,1.1975,-0.8275,-0.3695,-0.0925,-0.1615,-0.284,-0.238,-0.492,-0.4135,-0.0525,-0.077,0.016
-1.3445,-1.0415,0.3025,1.193,-0.823,-0.3695,-0.088,-0.1585,-0.282,-0.236,-0.491,-0.411,-0.053,-0.074,0.022
-1.3405,-1.0405,0.2995,1.1905,-0.8195,-0.37,-0.0875,-0.157,-0.28,-0.236,-0.492,-0.413,-0.054,-0.081,0.0175
-1.348,-1.046,0.3015,1.1965,-0.8245,-0.372,-0.0905,-0.163,-0.284,-0.2395,-0.495,-0.4165,-0.055,-0.0785,0.0175
-1.3545,-1.056,0.298,1.205,-0.8255,-0.3785,-0.0945,-0.167,-0.2895,-0.2435,-0.4995,-0.419,-0.0545,-0.0855,0.0225
-1.365,-1.063,0.3015,1.214,-0.833,-0.3805,-0.0935,-0.1705,-0.2905,-0.2445,-0.501,-0.421,-0.0575,-0.0905,0.014
-1.37,-1.059,0.31,1.2145,-0.8395,-0.374,-0.0905,-0.1665,-0.2875,-0.243,-0.499,-0.4175,-0.056,-0.0835,0.0125
-1.363,-1.0555,0.307,1.209,-0.8345,-0.374,-0.088,-0.16,-0.283,-0.2385,-0.496,-0.4145,-0.055,-0.092,-0.0055
-1.363,-1.052,0.3105,1.207,-0.836,-0.3705,-0.087,-0.1625,-0.284,-0.238,-0.496,-0.4135,-0.0555,-0.0895,-0.016
-1.3575,-1.045,0.3125,1.201,-0.8345,-0.366,-0.082,-0.16,-0.283,-0.236,-0.4945,-0.411,-0.0535,-0.0705,0.0195
-1.3625,-1.0555,0.3065,1.209,-0.834,-0.3745,-0.087,-0.1625,-0.2855,-0.2375,-0.4965,-0.414,-0.05,-0.0665,0.0375
-1.37,-1.064,0.306,1.2165,-0.8375,-0.3785,-0.0965,-0.168,-0.2915,-0.2415,-0.501,-0.418,-0.046,-0.068,0.0345
-1.355,-1.0555,0.299,1.205,-0.8265,-0.378,-0.0895,-0.163,-0.288,-0.2385,-0.499,-0.4145,-0.047,-0.0825,0.0185
-1.3485,-1.0535,0.2945,1.2005,-0.821,-0.3795,-0.0845,-0.16,-0.283,-0.234,-0.496,-0.4115,-0.0475,-0.0845,0.015
-1.348,-1.046,0.302,1.197,-0.8245,-0.372,-0.088,-0.162,-0.286,-0.2375,-0.4975,-0.413,-0.0475,-0.075,0.0225
-1.3495,-1.043,0.3055,1.196,-0.827,-0.3685,-0.088,-0.163,-0.2885,-0.24,-0.498,-0.414,-0.0475,-0.0845,0.0145
-1.358,-1.05,0.3075,1.204,-0.8325,-0.371,-0.0865,-0.1615,-0.2885,-0.24,-0.498,-0.415,-0.0495,-0.0905,0.0185
-1.3605,-1.05,0.31,1.205,-0.8345,-0.37,-0.0805,-0.1565,-0.2845,-0.237,-0.4945,-0.411,-0.049,-0.0935,0.0185
-1.358,-1.05,0.3075,1.204,-0.8325,-0.371,-0.0785,-0.157,-0.2815,-0.2335,-0.492,-0.409,-0.048,-0.0905,0.015
-1.351,-1.0505,0.3,1.2005,-0.825,-0.375,-0.0835,-0.1585,-0.285,-0.237,-0.494,-0.4085,-0.0475,-0.0845,0.02
-1.343,-1.053,0.289,1.198,-0.8155,-0.3815,-0.085,-0.1575,-0.2855,-0.2385,-0.496,-0.411,-0.0475,-0.0885,0.0285
-1.3415,-1.052,0.289,1.1965,-0.815,-0.3815,-0.0855,-0.158,-0.2855,-0.238,-0.497,-0.4125,-0.051,-0.0915,0.0235
-1.3505,-1.057,0.293,1.2035,-0.821,-0.382,-0.081,-0.158,-0.2865,-0.2375,-0.4955,-0.4105,-0.0535,-0.097,0.0135
-1.355,-1.0595,0.2945,1.207,-0.824,-0.3825,-0.0805,-0.157,-0.2865,-0.2375,-0.4965,-0.412,-0.0535,-0.0925,0.02
-1.342,-1.052,0.2895,1.197,-0.815,-0.381,-0.0815,-0.1565,-0.2845,-0.235,-0.4965,-0.4105,-0.0515,-0.0905,0.0215
-1.3385,-1.047,0.291,1.1925,-0.8145,-0.3775,-0.0805,-0.1575,-0.2845,-0.235,-0.4975,-0.4125,-0.054,-0.0915,0.0225
-1.347,-1.0415,0.305,1.194,-0.826,-0.368,-0.085,-0.161,-0.289,-0.239,-0.5005,-0.418,-0.0555,-0.0865,0.0225
-1.358,-1.0535,0.304,1.2055,-0.8305,-0.3745,-0.0835,-0.162,-0.2885,-0.2385,-0.5025,-0.416,-0.0555,-0.09,0.0225
-1.364,-1.0625,0.301,1.2135,-0.832,-0.3805,-0.08,-0.159,-0.2865,-0.2375,-0.502,-0.416,-0.058,-0.09,0.0225
-1.356,-1.0535,0.302,1.2045,-0.8285,-0.3755,-0.077,-0.155,-0.2845,-0.235,-0.501,-0.4155,-0.0585,-0.09,0.0165
-1.3545,-1.048,0.306,1.201,-0.8295,-0.371,-0.076,-0.1525,-0.281,-0.2315,-0.4965,-0.412,-0.0575,-0.088,0.024
-1.361,-1.0445,0.316,1.2025,-0.838,-0.364,-0.0785,-0.1565,-0.2825,-0.236,-0.499,-0.4155,-0.059,-0.0875,0.026
-1.3555,-1.046,0.3085,1.2005,-0.8315,-0.3685,-0.081,-0.1595,-0.286,-0.2395,-0.505,-0.4195,-0.06,-0.0945,0.0175
-1.36,-1.057,0.3025,1.2085,-0.831,-0.377,-0.082,-0.1605,-0.289,-0.241,-0.507,-0.4235,-0.0625,-0.0945,0.018
-1.3585,-1.0495,0.3085,1.204,-0.833,-0.3705,-0.083,-0.162,-0.29,-0.2425,-0.507,-0.424,-0.0595,-0.0945,0.007
-1.3535,-1.0435,0.309,1.198,-0.8305,-0.367,-0.0805,-0.1595,-0.287,-0.239,-0.506,-0.4235,-0.06,-0.0995,0.0
-1.362,-1.051,0.31,1.2065,-0.8355,-0.3705,-0.0785,-0.1605,-0.2875,-0.239,-0.5065,-0.4255,-0.0645,-0.0935,0.015
-1.3625,-1.054,0.308,1.208,-0.835,-0.373,-0.0825,-0.162,-0.2895,-0.2425,-0.5075,-0.426,-0.061,-0.082,0.0255
-1.361,-1.056,0.3045,1.2085,-0.832,-0.3755,-0.085,-0.1625,-0.29,-0.2445,-0.5085,-0.426,-0.06,-0.0905,0.021
-1.3585,-1.05,0.3075,1.204,-0.8325,-0.371,-0.081,-0.1625,-0.2905,-0.2435,-0.508,-0.426,-0.0615,-0.0945,0.0145
-1.359,-1.0475,0.3115,1.203,-0.835,-0.3675,-0.077,-0.1605,-0.288,-0.2415,-0.506,-0.427,-0.064,-0.084,0.0205
-1.3625,-1.055,0.307,1.2085,-0.8345,-0.3735,-0.081,-0.1605,-0.289,-0.243,-0.507,-0.4265,-0.0615,-0.0855,0.0345
-1.3685,-1.059,0.309,1.2135,-0.838,-0.375,-0.079,-0.161,-0.29,-0.2425,-0.509,-0.426,-0.062,-0.0825,0.0295
-1.3725,-1.0605,0.3115,1.2165,-0.8415,-0.3745,-0.083,-0.1615,-0.2905,-0.242,-0.51,-0.4305,-0.064,-0.0885,0.0185
-1.367,-1.063,0.3035,1.2145,-0.8345,-0.3795,-0.082,-0.16,-0.2915,-0.242,-0.5095,-0.431,-0.063,-0.0985,0.0225
-1.361,-1.0575,0.303,1.209,-0.8315,-0.377,-0.0815,-0.163,-0.292,-0.242,-0.5085,-0.43,-0.0635,-0.0835,0.027
-1.357,-1.063,0.2935,1.2095,-0.8245,-0.3845,-0.092,-0.1655,-0.2965,-0.246,-0.513,-0.434,-0.0625,-0.0955,0.0205
-1.363,-1.0675,0.2945,1.215,-0.8285,-0.386,-0.085,-0.1635,-0.296,-0.247,-0.5145,-0.435,-0.064,-0.099,0.014
-1.371,-1.061,0.3095,1.2155,-0.8395,-0.3755,-0.083,-0.165,-0.295,-0.2465,-0.513,-0.433,-0.0645,-0.086,0.0145
-1.3625,-1.057,0.305,1.21,-0.8335,-0.376,-0.0835,-0.163,-0.295,-0.2455,-0.511,-0.431,-0.0635,-0.092,0.017
-1.3565,-1.056,0.3,1.206,-0.828,-0.378,-0.081,-0.1615,-0.293,-0.244,-0.5105,-0.431,-0.0625,-0.1005,0.009
-1.3625,-1.061,0.301,1.2115,-0.831,-0.3795,-0.0835,-0.162,-0.293,-0.245,-0.511,-0.432,-0.062,-0.1065,0.0055
-1.3805,-1.063,0.3175,1.2215,-0.8485,-0.3725,-0.08,-0.16,-0.29,-0.242,-0.507,-0.4295,-0.066,-0.093,0.016
-1.3955,-1.0685,0.326,1.2315,-0.86,-0.371,-0.076,-0.16,-0.2895,-0.2415,-0.5075,-0.43,-0.068,-0.0925,0.018
-1.3825,-1.068,0.314,1.225,-0.848,-0.3765,-0.0795,-0.161,-0.2915,-0.242,-0.5095,-0.4325,-0.0665,-0.093,0.0125
-1.3645,-1.0665,0.2975,1.215,-0.8305,-0.384,-0.084,-0.164,-0.2935,-0.245,-0.511,-0.435,-0.0645,-0.1,-0.001
-1.3515,-1.059,0.292,1.205,-0.821,-0.3835,-0.081,-0.163,-0.292,-0.2455,-0.51,-0.4335,-0.0655,-0.1175,-0.0005
-1.3605,-1.056,0.3035,1.208,-0.8315,-0.376,-0.0805,-0.163,-0.2935,-0.2455,-0.5105,-0.434,-0.068,-0.101,0.0165
-1.3715,-1.0715,0.3,1.221,-0.835,-0.3855,-0.0875,-0.168,-0.301,-0.2525,-0.5175,-0.4405,-0.067,-0.0925,0.0215
-1.364,-1.0685,0.295,1.216,-0.829,-0.3865,-0.0875,-0.1665,-0.3,-0.2505,-0.516,-0.44,-0.066,-0.101,0.0035
-1.3605,-1.064,0.296,1.212,-0.828,-0.3835,-0.089,-0.167,-0.301,-0.252,-0.5175,-0.44,-0.0665,-0.0925,0.0135
-1.353,-1.06,0.292,1.206,-0.822,-0.384,-0.0875,-0.165,-0.299,-0.251,-0.5165,-0.4385,-0.0665,-0.086,0.036
-1.3505,-1.056,0.294,1.203,-0.8215,-0.381,-0.082,-0.161,-0.293,-0.245,-0.51,-0.433,-0.066,-0.089,0.0285
-1.3565,-1.0595,0.2965,1.2075,-0.826,-0.3815,-0.08,-0.1585,-0.2915,-0.2435,-0.5065,-0.43,-0.066,-0.0915,0.0305
-1.359,-1.05,0.308,1.2045,-0.833,-0.3705,-0.081,-0.157,-0.295,-0.2455,-0.511,-0.4365,-0.073,-0.0865,0.026
-1.356,-1.0445,0.3105,1.2,-0.8325,-0.367,-0.0845,-0.1625,-0.299,-0.2505,-0.516,-0.4395,-0.0715,-0.09,0.011
-1.355,-1.0535,0.301,1.204,-0.8275,-0.376,-0.0815,-0.1605,-0.295,-0.2485,-0.51,-0.4345,-0.069,-0.0985,0.01
-1.3605,-1.0585,0.3015,1.2095,-0.831,-0.378,-0.081,-0.1595,-0.295,-0.248,-0.511,-0.4355,-0.072,-0.091,0.02
-1.36,-1.059,0.301,1.2095,-0.83,-0.379,-0.0815,-0.1615,-0.297,-0.2505,-0.513,-0.436,-0.0705,-0.092,0.015
-1.366,-1.0655,0.3,1.2155,-0.8325,-0.3825,-0.083,-0.164,-0.298,-0.2525,-0.5135,-0.4375,-0.072,-0.098,0.0085
-1.3765,-1.073,0.3035,1.2245,-0.8395,-0.3845,-0.0885,-0.1705,-0.302,-0.256,-0.5185,-0.4385,-0.0695,-0.096,0.0125
-1.3845,-1.0705,0.314,1.227,-0.849,-0.378,-0.0865,-0.1675,-0.3055,-0.2575,-0.5195,-0.4415,-0.0705,-0.0885,0.007
-1.392,-1.0765,0.315,1.2335,-0.853,-0.38,-0.0915,-0.1705,-0.308,-0.2605,-0.521,-0.4425,-0.0705,-0.082,0.0235
-1.3795,-1.078,0.301,1.2285,-0.8395,-0.3885,-0.098,-0.1745,-0.3065,-0.2595,-0.52,-0.438,-0.065,-0.0825,0.035
-1.382,-1.0765,0.3055,1.229,-0.843,-0.3855,-0.0925,-0.1715,-0.3055,-0.258,-0.5195,-0.439,-0.067,-0.0825,0.0225
-1.391,-1.0785,0.312,1.2345,-0.851,-0.383,-0.093,-0.1715,-0.3055,-0.2585,-0.519,-0.4405,-0.067,-0.0855,0.0165
-1.362,-1.0525,0.309,1.207,-0.835,-0.3715,-0.0845,-0.161,-0.296,-0.249,-0.508,-0.4295,-0.0645,-0.0885,0.0175
-1.352,-1.041,0.3105,1.196,-0.8305,-0.365,-0.079,-0.1585,-0.2935,-0.246,-0.5045,-0.426,-0.0665,-0.0955,0.0255
-1.3585,-1.047,0.3105,1.2025,-0.834,-0.368,-0.082,-0.1625,-0.297,-0.2495,-0.5075,-0.4295,-0.068,-0.0975,0.0275
-1.3525,-1.0465,0.3055,1.199,-0.8285,-0.37,-0.081,-0.158,-0.293,-0.248,-0.505,-0.4265,-0.065,-0.0895,0.0265
-1.3575,-1.0485,0.308,1.2025,-0.832,-0.37,-0.0815,-0.1615,-0.296,-0.25,-0.5065,-0.4275,-0.0645,-0.0825,0.0275
-1.3645,-1.0525,0.312,1.2085,-0.8375,-0.37,-0.082,-0.1635,-0.299,-0.251,-0.5085,-0.427,-0.0655,-0.0815,0.027
-1.3625,-1.055,0.307,1.2085,-0.834,-0.374,-0.0875,-0.163,-0.297,-0.2495,-0.5065,-0.426,-0.064,-0.0905,0.025
-1.356,-1.053,0.302,1.2045,-0.8285,-0.375,-0.0825,-0.1615,-0.2945,-0.248,-0.5045,-0.4245,-0.0635,-0.092,0.026
-1.349,-1.0465,0.3025,1.1975,-0.825,-0.3715,-0.081,-0.158,-0.293,-0.245,-0.5015,-0.4215,-0.064,-0.0925,0.0235
-1.349,-1.0445,0.304,1.197,-0.826,-0.37,-0.0905,-0.161,-0.296,-0.2465,-0.503,-0.4245,-0.0605,-0.0895,0.021
-1.363,-1.063,0.2995,1.213,-0.831,-0.3815,-0.0965,-0.166,-0.3015,-0.252,-0.5085,-0.4305,-0.0585,-0.085,0.027
-1.376,-1.0765,0.299,1.2255,-0.837,-0.3885,-0.0985,-0.1695,-0.306,-0.2555,-0.512,-0.4355,-0.061,-0.094,0.024
-1.365,-1.0645,0.3,1.2145,-0.832,-0.382,-0.0955,-0.17,-0.3035,-0.2535,-0.509,-0.4325,-0.06,-0.0995,0.016
-1.3615,-1.057,0.3045,1.209,-0.8325,-0.376,-0.0935,-0.1655,-0.3005,-0.2495,-0.5065,-0.4305,-0.059,-0.1005,0.0105
-1.3665,-1.065,0.3005,1.2155,-0.833,-0.382,-0.0955,-0.1645,-0.301,-0.251,-0.5075,-0.434,-0.06,-0.098,0.017
-1.364,-1.065,0.299,1.2145,-0.831,-0.3825,-0.0915,-0.163,-0.296,-0.247,-0.502,-0.43,-0.059,-0.1005,0.024
-1.3695,-1.066,0.303,1.2175,-0.836,-0.3815,-0.0905,-0.164,-0.296,-0.246,-0.5035,-0.427,-0.059,-0.104,0.0195
-1.383,-1.0765,0.306,1.2295,-0.844,-0.385,-0.0975,-0.1715,-0.3025,-0.2545,-0.512,-0.4325,-0.059,-0.0895,0.028
-1.391,-1.08,0.311,1.235,-0.8505,-0.384,-0.1,-0.1735,-0.3055,-0.256,-0.514,-0.435,-0.0575,-0.0875,0.03
-1.375,-1.071,0.3035,1.2225,-0.839,-0.3835,-0.0945,-0.1695,-0.301,-0.2525,-0.5095,-0.431,-0.058,-0.1005,0.0175
-1.3545,-1.049,0.305,1.2015,-0.8295,-0.3715,-0.086,-0.1615,-0.2935,-0.245,-0.501,-0.425,-0.0585,-0.098,0.017
-1.3465,-1.039,0.307,1.192,-0.826,-0.3655,-0.0855,-0.1575,-0.292,-0.2405,-0.497,-0.419,-0.056,-0.0935,0.0255
-1.344,-1.04,0.303,1.1915,-0.823,-0.368,-0.087,-0.1585,-0.293,-0.241,-0.497,-0.4165,-0.054,-0.099,0.022
-1.351,-1.0435,0.3065,1.197,-0.828,-0.3685,-0.087,-0.159,-0.2935,-0.24,-0.498,-0.418,-0.054,-0.097,0.024
-1.365,-1.057,0.3075,1.211,-0.8355,-0.3745,-0.087,-0.1615,-0.296,-0.242,-0.5005,-0.421,-0.0575,-0.102,0.025
-1.3705,-1.055,0.3155,1.2125,-0.8425,-0.3695,-0.088,-0.1635,-0.2975,-0.2435,-0.5035,-0.4225,-0.058,-0.1045,0.0185
-1.3675,-1.049,0.318,1.208,-0.8425,-0.365,-0.0895,-0.1645,-0.2955,-0.2425,-0.503,-0.4215,-0.057,-0.1,0.0225
-1.3655,-1.054,0.311,1.2095,-0.8375,-0.3715,-0.089,-0.1635,-0.2955,-0.242,-0.502,-0.4235,-0.0575,-0.0995,0.026
-1.3615,-1.051,0.31,1.206,-0.835,-0.3705,-0.0895,-0.1625,-0.296,-0.24,-0.5015,-0.423,-0.0555,-0.104,0.0155
-1.3595,-1.046,0.313,1.2025,-0.836,-0.3665,-0.089,-0.1625,-0.294,-0.238,-0.4985,-0.422,-0.053,-0.099,0.012
-1.3575,-1.047,0.31,1.202,-0.833,-0.3685,-0.092,-0.1645,-0.296,-0.241,-0.501,-0.4255,-0.053,-0.085,0.0305
-1.3525,-1.049,0.303,1.2005,-0.8275,-0.3725,-0.0925,-0.167,-0.2985,-0.2445,-0.505,-0.4275,-0.055,-0.0965,0.021
-1.355,-1.0485,0.306,1.2015,-0.83,-0.371,-0.085,-0.1655,-0.297,-0.243,-0.5045,-0.4265,-0.058,-0.095,0.0055
-1.3585,-1.0485,0.3095,1.203,-0.8335,-0.3695,-0.087,-0.1655,-0.2965,-0.242,-0.5015,-0.4235,-0.0575,-0.0935,0.013
-1.3525,-1.0425,0.31,1.197,-0.831,-0.366,-0.0895,-0.164,-0.295,-0.241,-0.501,-0.4215,-0.055,-0.0915,0.0225
-1.3475,-1.0405,0.3065,1.1935,-0.8265,-0.3665,-0.0875,-0.1635,-0.294,-0.2405,-0.501,-0.422,-0.055,-0.0855,0.028
-1.3455,-1.0435,0.3015,1.194,-0.823,-0.371,-0.0875,-0.158,-0.291,-0.2375,-0.4955,-0.416,-0.0525,-0.095,0.0215
-1.3465,-1.0435,0.302,1.195,-0.8235,-0.3705,-0.085,-0.155,-0.288,-0.2355,-0.4945,-0.4145,-0.0535,-0.0955,0.0175
-1.35,-1.0405,0.309,1.195,-0.829,-0.3655,-0.084,-0.1595,-0.2895,-0.237,-0.495,-0.414,-0.0535,-0.092,0.0195
-1.346,-1.0365,0.309,1.191,-0.8275,-0.3635,-0.082,-0.1575,-0.288,-0.2345,-0.4915,-0.4115,-0.0525,-0.0865,0.028
-1.3395,-1.039,0.301,1.189,-0.82,-0.3685,-0.083,-0.1575,-0.2905,-0.2375,-0.495,-0.4145,-0.054,-0.093,0.0255
-1.338,-1.038,0.3,1.188,-0.8185,-0.369,-0.09,-0.163,-0.296,-0.2415,-0.4995,-0.4155,-0.051,-0.0955,0.022
-1.3435,-1.0395,0.3035,1.1915,-0.823,-0.368,-0.0915,-0.1645,-0.2955,-0.2415,-0.4995,-0.4175,-0.0505,-0.085,0.028
-1.3465,-1.045,0.3015,1.1955,-0.8235,-0.3715,-0.092,-0.166,-0.2975,-0.2435,-0.4995,-0.418,-0.0495,-0.088,0.0225
-1.3425,-1.046,0.2965,1.194,-0.819,-0.3745,-0.0965,-0.1675,-0.3,-0.243,-0.501,-0.4175,-0.048,-0.094,0.022
-1.3385,-1.038,0.3005,1.188,-0.819,-0.3685,-0.0945,-0.166,-0.2985,-0.242,-0.4985,-0.417,-0.048,-0.097,0.024
-1.334,-1.0275,0.3055,1.1805,-0.819,-0.3605,-0.094,-0.166,-0.2975,-0.2415,-0.4975,-0.4165,-0.0485,-0.0895,0.029
-1.3365,-1.0295,0.3065,1.1825,-0.821,-0.361,-0.0925,-0.165,-0.2965,-0.242,-0.497,-0.4175,-0.051,-0.085,0.0285
-1.3465,-1.033,0.313,1.1895,-0.829,-0.36,-0.088,-0.1635,-0.293,-0.24,-0.496,-0.417,-0.0535,-0.0855,0.0245
-1.3495,-1.0295,0.3195,1.189,-0.834,-0.3545,-0.0885,-0.1645,-0.2925,-0.2385,-0.4955,-0.414,-0.0525,-0.0765,0.0265
-1.342,-1.025,0.3165,1.1835,-0.8285,-0.354,-0.09,-0.165,-0.2945,-0.239,-0.4925,-0.4115,-0.05,-0.0785,0.025
-1.34,-1.0215,0.318,1.1805,-0.829,-0.3515,-0.089,-0.164,-0.292,-0.236,-0.4915,-0.41,-0.05,-0.08,0.025
-1.3385,-1.016,0.322,1.177,-0.83,-0.3465,-0.086,-0.16,-0.287,-0.2325,-0.488,-0.406,-0.0495,-0.0715,0.0185
-1.337,-1.0115,0.325,1.174,-0.8305,-0.343,-0.0865,-0.1585,-0.285,-0.23,-0.4855,-0.404,-0.0495,-0.0655,0.0145
-1.3365,-1.0025,0.334,1.169,-0.835,-0.334,-0.0835,-0.161,-0.2845,-0.229,-0.4855,-0.404,-0.052,-0.0545,0.0115
-1.333,-0.993,0.3395,1.1625,-0.8355,-0.3265,-0.0795,-0.1595,-0.2815,-0.227,-0.4845,-0.4005,-0.051,-0.0455,0.014
-1.338,-0.989,0.348,1.1635,-0.8425,-0.3205,-0.0725,-0.1555,-0.2785,-0.2235,-0.4825,-0.399,-0.0515,-0.0345,0.014
-1.335,-0.986,0.3485,1.16,-0.841,-0.3185,-0.073,-0.1565,-0.2795,-0.224,-0.482,-0.4005,-0.0525,-0.0335,0.009
-1.334,-0.986,0.347,1.1595,-0.84,-0.3195,-0.079,-0.161,-0.281,-0.2265,-0.483,-0.402,-0.051,-0.0325,0.0125
-1.3345,-0.9835,0.3505,1.159,-0.842,-0.3165,-0.0705,-0.1555,-0.2765,-0.223,-0.4795,-0.3985,-0.049,-0.023,0.0125
-1.337,-0.9795,0.357,1.158,-0.8465,-0.311,-0.0665,-0.1515,-0.2715,-0.221,-0.4745,-0.3945,-0.0505,-0.0245,0.0085
-1.3465,-0.9765,0.37,1.1615,-0.8575,-0.303,-0.064,-0.1535,-0.2715,-0.223,-0.475,-0.3945,-0.0545,-0.021,0.0065
-1.3555,-0.9785,0.376,1.167,-0.8655,-0.301,-0.0615,-0.157,-0.2765,-0.227,-0.48,-0.3985,-0.059,-0.0155,0.0055
-1.353,-0.974,0.3785,1.163,-0.865,-0.2975,-0.0575,-0.156,-0.2765,-0.227,-0.479,-0.4005,-0.0605,-0.0155,0.0035
-1.3375,-0.9625,0.3745,1.1495,-0.8555,-0.2935,-0.0515,-0.15,-0.269,-0.221,-0.474,-0.3945,-0.0575,-0.0155,0.0
-1.335,-0.965,0.3695,1.15,-0.8515,-0.2975,-0.0475,-0.1475,-0.2675,-0.2175,-0.4725,-0.3945,-0.0575,-0.013,-0.0085
-1.336,-0.971,0.364,1.153,-0.8495,-0.303,-0.046,-0.1455,-0.2685,-0.219,-0.4755,-0.3975,-0.057,-0.021,-0.0075
-1.339,-0.966,0.3725,1.1525,-0.8555,-0.2965,-0.045,-0.148,-0.27,-0.2225,-0.477,-0.3975,-0.059,-0.022,-0.026
-1.341,-0.9545,0.3865,1.1475,-0.8635,-0.284,-0.044,-0.147,-0.268,-0.22,-0.4735,-0.3965,-0.0605,-0.0055,-0.0225
-1.343,-0.9565,0.386,1.1495,-0.864,-0.285,-0.045,-0.147,-0.268,-0.22,-0.473,-0.3955,-0.058,0.002,-0.009
-1.341,-0.9605,0.3805,1.1505,-0.8605,-0.29,-0.048,-0.149,-0.27,-0.22,-0.4735,-0.396,-0.0545,-0.0025,-0.023
-1.3315,-0.9515,0.3795,1.1415,-0.855,-0.286,-0.0535,-0.148,-0.27,-0.219,-0.4735,-0.3945,-0.0485,0.0025,-0.016
-1.3325,-0.954,0.3775,1.143,-0.8545,-0.288,-0.0585,-0.148,-0.2695,-0.219,-0.4725,-0.3945,-0.0475,0.01,-0.01
-1.3325,-0.9595,0.3725,1.1455,-0.8515,-0.2935,-0.0595,-0.1465,-0.2665,-0.215,-0.4695,-0.392,-0.0465,0.006,-0.001
-1.33,-0.952,0.3775,1.1405,-0.853,-0.287,-0.065,-0.1495,-0.2665,-0.2145,-0.47,-0.392,-0.043,-0.003,-0.018
-1.327,-0.942,0.384,1.134,-0.855,-0.2785,-0.0715,-0.152,-0.2665,-0.214,-0.4685,-0.392,-0.0415,0.0025,-0.01
-1.3295,-0.9385,0.391,1.1335,-0.86,-0.2735,-0.0745,-0.154,-0.266,-0.2135,-0.4665,-0.391,-0.041,0.021,0.015
-1.3385,-0.945,0.393,1.1415,-0.8655,-0.2755,-0.0785,-0.1575,-0.265,-0.213,-0.4655,-0.393,-0.04,0.022,0.0025
-1.331,-0.931,0.3995,1.1305,-0.8645,-0.2655,-0.089,-0.161,-0.266,-0.2115,-0.464,-0.3925,-0.0365,0.029,-0.0035
