i,ii,iii,avr,avl,avf,v1,v2,v3,v4,v5,v6,vx,vy,vz
-0.0105,0.3,0.311,-0.145,-0.161,0.3055,-0.074,0.0415,0.031,0.029,0.0235,0.0815,-0.033,0.1205,-0.0215
0.006,0.264,0.2585,-0.1355,-0.126,0.261,-0.0875,0.0295,0.0185,0.0165,0.0105,0.07,-0.029,0.1085,-0.0195
-0.0105,0.2455,0.257,-0.118,-0.1335,0.251,-0.0905,0.029,0.0175,0.015,0.007,0.0665,-0.028,0.099,-0.02
-0.017,0.297,0.314,-0.1405,-0.1655,0.3055,-0.085,0.0375,0.028,0.023,0.0135,0.0725,-0.027,0.1215,-0.029
-0.017,0.3365,0.3535,-0.16,-0.1855,0.345,-0.083,0.0475,0.0365,0.0305,0.018,0.075,-0.0265,0.142,-0.033
-0.0195,0.325,0.3445,-0.153,-0.182,0.3345,-0.101,0.043,0.0315,0.024,0.0095,0.066,-0.029,0.1395,-0.033
-0.015,0.3015,0.317,-0.1435,-0.166,0.309,-0.1055,0.0475,0.035,0.0265,0.011,0.068,-0.032,0.1285,-0.0355
-0.004,0.258,0.2625,-0.127,-0.133,0.26,-0.0875,0.0685,0.056,0.0475,0.029,0.084,-0.0345,0.0965,-0.04
0.008,0.2505,0.243,-0.1295,-0.1175,0.2465,-0.0835,0.0725,0.0595,0.0485,0.0305,0.085,-0.0355,0.0895,-0.042
0.037,0.298,0.2615,-0.168,-0.112,0.2795,-0.0825,0.0715,0.0555,0.0435,0.0255,0.08,-0.037,0.1045,-0.043
0.0555,0.327,0.272,-0.1915,-0.1085,0.299,-0.088,0.065,0.048,0.035,0.018,0.0715,-0.0385,0.1175,-0.0425
0.0565,0.3275,0.2715,-0.192,-0.108,0.299,-0.1,0.0555,0.0395,0.024,0.0065,0.0615,-0.0385,0.1335,-0.042
0.0295,0.3465,0.3175,-0.1885,-0.144,0.3315,-0.105,0.0525,0.036,0.0185,0.003,0.058,-0.0405,0.1515,-0.044
-0.006,0.3435,0.3505,-0.169,-0.1785,0.347,-0.107,0.0505,0.032,0.0135,-0.001,0.0545,-0.042,0.1515,-0.04
-0.0025,0.3265,0.3295,-0.1625,-0.166,0.328,-0.1105,0.043,0.0265,0.0075,-0.0095,0.0475,-0.0415,0.1455,-0.0395
-0.008,0.319,0.328,-0.1555,-0.168,0.323,-0.111,0.0405,0.024,0.005,-0.011,0.0465,-0.039,0.147,-0.039
-0.005,0.32,0.3255,-0.158,-0.165,0.3225,-0.105,0.049,0.032,0.0115,-0.005,0.052,-0.034,0.144,-0.039
0.0075,0.317,0.3105,-0.1625,-0.1515,0.3135,-0.1,0.058,0.04,0.0195,0.0025,0.059,-0.034,0.135,-0.0375
0.0345,0.3045,0.2705,-0.1695,-0.118,0.287,-0.094,0.07,0.0495,0.029,0.0115,0.0695,-0.0345,0.12,-0.034
0.066,0.3205,0.2545,-0.1935,-0.094,0.2875,-0.1105,0.059,0.039,0.0165,-0.002,0.0565,-0.031,0.134,-0.036
0.059,0.3145,0.256,-0.187,-0.0985,0.285,-0.117,0.052,0.0315,0.009,-0.01,0.0495,-0.03,0.136,-0.0385
0.0705,0.3065,0.2365,-0.189,-0.083,0.271,-0.1045,0.059,0.0375,0.0155,-0.004,0.0545,-0.03,0.122,-0.039
0.0755,0.2955,0.2205,-0.1855,-0.0725,0.258,-0.1105,0.055,0.031,0.007,-0.012,0.047,-0.0305,0.1175,-0.0385
0.0475,0.29,0.2425,-0.169,-0.0975,0.266,-0.1065,0.0615,0.035,0.0115,-0.009,0.0505,-0.033,0.1275,-0.0455
-0.0125,0.2915,0.304,-0.14,-0.158,0.2975,-0.102,0.0665,0.039,0.015,-0.0065,0.0525,-0.032,0.1425,-0.049
-0.06,0.268,0.328,-0.1045,-0.194,0.298,-0.111,0.061,0.033,0.0055,-0.015,0.042,-0.0335,0.139,-0.05
-0.0675,0.25,0.318,-0.0915,-0.1925,0.2835,-0.1105,0.067,0.036,0.009,-0.0145,0.041,-0.037,0.1335,-0.0535
-0.0645,0.249,0.314,-0.0925,-0.1895,0.2815,-0.0935,0.084,0.052,0.0245,0.0015,0.056,-0.0365,0.1215,-0.056
-0.0465,0.255,0.3015,-0.1045,-0.174,0.278,-0.083,0.0895,0.058,0.0265,0.0055,0.06,-0.035,0.117,-0.0575
-0.0275,0.2585,0.2865,-0.1155,-0.157,0.272,-0.0805,0.0875,0.0565,0.0245,0.001,0.0565,-0.0325,0.12,-0.0585
-0.0015,0.2705,0.272,-0.135,-0.1365,0.271,-0.083,0.088,0.0595,0.027,0.003,0.0575,-0.0315,0.1195,-0.06
-0.0005,0.2675,0.2685,-0.1335,-0.1345,0.2675,-0.093,0.085,0.0575,0.0245,-0.002,0.0515,-0.0315,0.1235,-0.0645
-0.0075,0.2865,0.2945,-0.1395,-0.151,0.29,-0.0995,0.0815,0.0545,0.017,-0.0115,0.041,-0.035,0.138,-0.0695
0.014,0.313,0.3,-0.164,-0.143,0.3065,-0.101,0.0815,0.054,0.012,-0.0145,0.0375,-0.0355,0.1485,-0.065
0.051,0.3485,0.298,-0.2,-0.1235,0.323,-0.099,0.092,0.061,0.0205,-0.0045,0.045,-0.0325,0.1485,-0.061
0.0585,0.353,0.295,-0.206,-0.1185,0.324,-0.097,0.099,0.0665,0.028,0.0045,0.054,-0.0275,0.1415,-0.06
0.0255,0.301,0.276,-0.1635,-0.125,0.2885,-0.0915,0.1,0.0685,0.0265,0.004,0.0575,-0.0235,0.1255,-0.0585
0.001,0.2675,0.2665,-0.1345,-0.1325,0.267,-0.095,0.0945,0.0615,0.0185,-0.005,0.0505,-0.0225,0.12,-0.055
-0.0005,0.2365,0.2375,-0.1185,-0.119,0.237,-0.093,0.0965,0.063,0.019,-0.002,0.0525,-0.021,0.104,-0.053
0.011,0.2355,0.225,-0.1235,-0.107,0.23,-0.0985,0.0975,0.0625,0.0175,-0.0015,0.0515,-0.0185,0.104,-0.055
-0.009,0.2365,0.246,-0.114,-0.1275,0.241,-0.0995,0.0985,0.0645,0.0215,-0.003,0.0505,-0.018,0.121,-0.059
0.009,0.2695,0.261,-0.1395,-0.126,0.265,-0.0885,0.1065,0.0705,0.027,-0.0005,0.0545,-0.0205,0.1245,-0.06
0.0415,0.3,0.2585,-0.171,-0.1085,0.279,-0.101,0.098,0.059,0.0125,-0.015,0.0405,-0.0255,0.1355,-0.058
0.0155,0.306,0.2915,-0.161,-0.138,0.2985,-0.1095,0.0935,0.056,0.0075,-0.0205,0.033,-0.0325,0.1575,-0.065
-0.0465,0.3215,0.369,-0.1375,-0.2075,0.345,-0.103,0.1065,0.067,0.022,-0.0085,0.044,-0.0295,0.171,-0.07
-0.0625,0.3225,0.3855,-0.13,-0.224,0.3535,-0.0945,0.1245,0.083,0.039,0.008,0.0575,-0.026,0.1645,-0.0715
0.0145,0.3375,0.3235,-0.1765,-0.1545,0.3305,-0.109,0.1165,0.076,0.0315,-0.0005,0.0495,-0.0285,0.154,-0.0705
0.0145,0.3145,0.3,-0.165,-0.1425,0.307,-0.107,0.125,0.085,0.0415,0.0075,0.0565,-0.024,0.13,-0.071
-0.038,0.297,0.336,-0.1295,-0.187,0.3165,-0.092,0.1435,0.1035,0.058,0.025,0.0725,-0.0195,0.1205,-0.073
-0.014,0.268,0.2825,-0.1275,-0.1485,0.275,-0.085,0.1445,0.103,0.0585,0.0265,0.0735,-0.019,0.103,-0.0735
0.023,0.252,0.2295,-0.1375,-0.103,0.2405,-0.0785,0.1445,0.1055,0.06,0.0255,0.0735,-0.021,0.088,-0.076
0.059,0.272,0.214,-0.1655,-0.0775,0.2425,-0.0795,0.1345,0.097,0.052,0.0155,0.065,-0.02,0.097,-0.0775
0.076,0.2515,0.176,-0.164,-0.05,0.2135,-0.0775,0.126,0.0885,0.0425,0.0075,0.0575,-0.019,0.0915,-0.0735
0.0625,0.2275,0.1655,-0.1455,-0.052,0.1965,-0.095,0.1035,0.067,0.019,-0.0145,0.0345,-0.0215,0.0915,-0.0665
0.053,0.2095,0.157,-0.1315,-0.052,0.183,-0.1115,0.085,0.048,-0.0005,-0.031,0.018,-0.025,0.099,-0.064
-0.0115,0.2185,0.2305,-0.104,-0.121,0.2245,-0.093,0.1045,0.069,0.0195,-0.014,0.0365,-0.026,0.113,-0.0625
-0.13,0.214,0.3445,-0.042,-0.2375,0.279,-0.0495,0.1495,0.115,0.0645,0.0285,0.077,-0.0225,0.112,-0.064
-0.1725,0.1845,0.3575,-0.006,-0.265,0.271,-0.0245,0.1705,0.135,0.085,0.0495,0.0975,-0.0175,0.1035,-0.0665
-0.123,0.196,0.3195,-0.0365,-0.221,0.2575,-0.0285,0.164,0.1275,0.0765,0.0415,0.089,-0.0165,0.105,-0.0645
-0.0935,0.2245,0.3185,-0.066,-0.206,0.271,-0.0345,0.1595,0.1215,0.0695,0.0365,0.083,-0.019,0.1145,-0.0655
-0.093,0.2465,0.3405,-0.077,-0.2165,0.293,-0.032,0.159,0.121,0.0685,0.036,0.0815,-0.0205,0.1245,-0.0715
-0.096,0.245,0.342,-0.0745,-0.219,0.2935,-0.045,0.1515,0.1135,0.0605,0.0275,0.074,-0.0185,0.1225,-0.0725
-0.09,0.2515,0.342,-0.081,-0.216,0.2965,-0.0575,0.1515,0.112,0.06,0.0265,0.0715,-0.0165,0.1165,-0.0705
-0.0565,0.2745,0.3315,-0.109,-0.194,0.3025,-0.0535,0.159,0.1175,0.065,0.03,0.074,-0.015,0.121,-0.075
-0.0785,0.2355,0.315,-0.079,-0.1965,0.275,-0.065,0.1485,0.108,0.056,0.0205,0.0635,-0.013,0.1205,-0.0775
-0.101,0.2105,0.312,-0.055,-0.2065,0.261,-0.0725,0.1385,0.0975,0.0475,0.011,0.052,-0.015,0.118,-0.0795
-0.061,0.2445,0.306,-0.092,-0.1835,0.275,-0.064,0.1455,0.1035,0.054,0.0155,0.057,-0.016,0.116,-0.085
-0.008,0.2955,0.304,-0.144,-0.156,0.2995,-0.054,0.155,0.1135,0.0635,0.0235,0.064,-0.0155,0.124,-0.0865
0.025,0.2975,0.273,-0.1615,-0.124,0.285,-0.0515,0.16,0.12,0.07,0.029,0.0675,-0.0155,0.1195,-0.087
0.0005,0.2645,0.2645,-0.1325,-0.132,0.264,-0.056,0.165,0.1245,0.0745,0.034,0.071,-0.0115,0.111,-0.089
-0.02,0.266,0.2865,-0.1235,-0.153,0.276,-0.077,0.152,0.1105,0.06,0.019,0.058,-0.0075,0.128,-0.0885
-0.0445,0.278,0.323,-0.117,-0.184,0.3005,-0.09,0.147,0.104,0.0525,0.0095,0.048,-0.0085,0.144,-0.091
-0.0955,0.273,0.3685,-0.089,-0.232,0.3205,-0.083,0.1585,0.1145,0.0595,0.017,0.0525,-0.008,0.151,-0.0945
-0.1105,0.247,0.3585,-0.0685,-0.2345,0.3025,-0.0735,0.168,0.125,0.0705,0.0295,0.064,-0.003,0.137,-0.091
-0.0845,0.2425,0.3275,-0.0795,-0.206,0.2845,-0.0565,0.1875,0.143,0.093,0.0515,0.0845,0.0005,0.116,-0.09
-0.0745,0.2105,0.2855,-0.0685,-0.18,0.248,-0.0565,0.1945,0.1495,0.099,0.0575,0.0915,0.002,0.0935,-0.09
-0.0975,0.181,0.279,-0.042,-0.188,0.2295,-0.071,0.185,0.142,0.0935,0.051,0.087,0.0055,0.091,-0.0865
-0.0965,0.193,0.29,-0.0485,-0.1935,0.2415,-0.092,0.164,0.1215,0.0745,0.032,0.067,0.01,0.114,-0.0895
-0.0655,0.2455,0.3115,-0.0905,-0.1885,0.2785,-0.1265,0.131,0.091,0.0415,0.0015,0.035,0.015,0.1495,-0.0905
-0.046,0.263,0.3095,-0.109,-0.178,0.286,-0.123,0.1335,0.096,0.0445,0.0055,0.039,0.0165,0.1555,-0.09
-0.07,0.2495,0.32,-0.09,-0.195,0.2845,-0.1185,0.133,0.097,0.0445,0.0055,0.0385,0.0165,0.1645,-0.093
-0.081,0.228,0.3095,-0.074,-0.1955,0.2685,-0.103,0.145,0.1125,0.061,0.022,0.054,0.0185,0.1455,-0.09
-0.0825,0.148,0.231,-0.033,-0.157,0.189,-0.0545,0.191,0.161,0.11,0.0715,0.104,0.02,0.0775,-0.0885
-0.112,0.153,0.2655,-0.021,-0.189,0.209,-0.0645,0.191,0.1625,0.1125,0.0735,0.1055,0.0195,0.093,-0.0955
-0.115,0.2085,0.324,-0.047,-0.2195,0.266,-0.0715,0.1925,0.1645,0.1165,0.076,0.1065,0.0185,0.114,-0.0975
-0.089,0.241,0.3305,-0.0765,-0.2095,0.2855,-0.0605,0.202,0.1745,0.128,0.088,0.116,0.0215,0.1155,-0.094
-0.0405,0.302,0.343,-0.131,-0.1915,0.322,-0.0545,0.1965,0.1725,0.127,0.086,0.113,0.019,0.1415,-0.094
-0.024,0.3305,0.3545,-0.1535,-0.189,0.342,-0.0505,0.1905,0.1665,0.1235,0.083,0.1085,0.0175,0.1495,-0.093
-0.0595,0.2685,0.3285,-0.1045,-0.194,0.298,-0.0435,0.1955,0.172,0.131,0.092,0.114,0.019,0.126,-0.0915
-0.072,0.2315,0.3045,-0.08,-0.1885,0.268,-0.0335,0.1995,0.178,0.1385,0.0975,0.1195,0.0195,0.1095,-0.0915
-0.05,0.2385,0.289,-0.0945,-0.1695,0.2635,-0.045,0.192,0.171,0.1325,0.091,0.1135,0.019,0.108,-0.091
-0.031,0.225,0.2565,-0.097,-0.144,0.2405,-0.0515,0.19,0.169,0.1315,0.09,0.1125,0.0165,0.1035,-0.093
-0.05,0.221,0.2715,-0.0855,-0.161,0.2455,-0.067,0.1765,0.158,0.1215,0.08,0.103,0.02,0.117,-0.093
-0.079,0.2275,0.307,-0.0745,-0.193,0.267,-0.0725,0.171,0.154,0.1185,0.077,0.1,0.023,0.1305,-0.0885
-0.0965,0.2395,0.337,-0.072,-0.217,0.288,-0.0805,0.162,0.145,0.1095,0.0695,0.0925,0.0235,0.139,-0.088
-0.124,0.186,0.3105,-0.0315,-0.217,0.248,-0.09,0.1555,0.142,0.105,0.0675,0.0915,0.0265,0.12,-0.088
-0.1195,0.132,0.252,-0.0065,-0.186,0.192,-0.083,0.164,0.151,0.116,0.079,0.103,0.027,0.0975,-0.086
-0.116,0.174,0.2905,-0.0295,-0.203,0.2315,-0.0735,0.176,0.1655,0.129,0.093,0.1155,0.0265,0.107,-0.086
-0.122,0.2245,0.347,-0.0515,-0.2345,0.2855,-0.0695,0.1845,0.175,0.1395,0.104,0.1285,0.03,0.1165,-0.086
-0.1145,0.2605,0.376,-0.073,-0.2455,0.318,-0.0735,0.181,0.173,0.1385,0.105,0.1285,0.032,0.128,-0.0875
-0.1275,0.2615,0.3895,-0.0675,-0.2585,0.325,-0.082,0.175,0.1695,0.134,0.1015,0.1235,0.0325,0.141,-0.0915
-0.12,0.238,0.3585,-0.059,-0.2395,0.298,-0.0985,0.1595,0.1535,0.1195,0.088,0.1105,0.0365,0.1395,-0.088
-0.102,0.221,0.323,-0.06,-0.2125,0.2715,-0.097,0.1535,0.148,0.115,0.086,0.1085,0.041,0.1255,-0.085
-0.0955,0.215,0.311,-0.06,-0.203,0.2625,-0.0975,0.151,0.146,0.1175,0.089,0.1105,0.0435,0.1245,-0.0875
-0.08,0.222,0.303,-0.071,-0.1915,0.262,-0.106,0.147,0.1425,0.1145,0.0845,0.1055,0.042,0.1335,-0.088
-0.0845,0.214,0.2995,-0.065,-0.192,0.2565,-0.1025,0.148,0.1425,0.1175,0.086,0.1055,0.04,0.129,-0.089
-0.0945,0.2395,0.3345,-0.0725,-0.2145,0.2865,-0.098,0.1465,0.1425,0.12,0.0885,0.1055,0.0395,0.136,-0.091
-0.078,0.252,0.3305,-0.087,-0.2045,0.291,-0.0875,0.156,0.152,0.134,0.102,0.1185,0.0405,0.13,-0.0925
-0.0855,0.204,0.29,-0.0595,-0.188,0.2465,-0.078,0.168,0.1635,0.1495,0.1185,0.134,0.044,0.109,-0.095
-0.101,0.153,0.2545,-0.026,-0.178,0.2035,-0.071,0.1775,0.177,0.1615,0.13,0.147,0.043,0.083,-0.095
-0.107,0.1525,0.26,-0.023,-0.1835,0.206,-0.069,0.1825,0.185,0.1705,0.14,0.156,0.0445,0.071,-0.0905
-0.111,0.214,0.3255,-0.052,-0.218,0.2695,-0.0875,0.166,0.1725,0.157,0.129,0.144,0.045,0.109,-0.0905
-0.1,0.2445,0.345,-0.0725,-0.2225,0.2945,-0.1055,0.1505,0.1605,0.1445,0.117,0.1335,0.045,0.127,-0.0875
-0.0825,0.25,0.333,-0.084,-0.2075,0.291,-0.114,0.141,0.1525,0.1375,0.1105,0.1265,0.045,0.1305,-0.079
-0.0695,0.273,0.343,-0.102,-0.2065,0.308,-0.1245,0.128,0.143,0.1265,0.101,0.1165,0.043,0.1525,-0.077
-0.0745,0.259,0.3345,-0.0925,-0.2045,0.2965,-0.1075,0.141,0.156,0.143,0.1185,0.134,0.047,0.1455,-0.0755
-0.075,0.2265,0.302,-0.076,-0.1885,0.264,-0.1,0.1465,0.1615,0.15,0.1305,0.1455,0.0495,0.1195,-0.071
-0.084,0.2,0.2845,-0.058,-0.184,0.242,-0.11,0.133,0.15,0.1395,0.1205,0.1375,0.0495,0.1125,-0.0685
-0.1045,0.2065,0.3115,-0.051,-0.208,0.2585,-0.121,0.118,0.136,0.1285,0.109,0.126,0.0505,0.1345,-0.0675
-0.102,0.2145,0.317,-0.0565,-0.2095,0.2655,-0.1565,0.087,0.1075,0.1015,0.0835,0.102,0.049,0.1515,-0.0635
-0.1005,0.176,0.2765,-0.038,-0.1885,0.226,-0.165,0.074,0.096,0.0915,0.074,0.0935,0.0445,0.1405,-0.062
-0.106,0.1555,0.262,-0.025,-0.184,0.2085,-0.144,0.0775,0.1015,0.097,0.0825,0.103,0.0415,0.1205,-0.056
-0.0835,0.193,0.277,-0.055,-0.1805,0.235,-0.124,0.0845,0.11,0.1075,0.093,0.115,0.0405,0.112,-0.0515
-0.045,0.2435,0.2895,-0.0995,-0.1675,0.2665,-0.1185,0.09,0.1155,0.1145,0.1,0.1225,0.04,0.121,-0.0545
-0.062,0.2245,0.2875,-0.0815,-0.1745,0.2555,-0.1165,0.093,0.119,0.1185,0.105,0.128,0.04,0.119,-0.056
-0.0765,0.2365,0.3135,-0.0805,-0.195,0.275,-0.1095,0.101,0.1275,0.1285,0.114,0.137,0.042,0.126,-0.058
-0.028,0.2625,0.2905,-0.1175,-0.159,0.276,-0.122,0.0975,0.124,0.128,0.1115,0.136,0.0465,0.125,-0.06
0.007,0.2535,0.247,-0.1305,-0.12,0.25,-0.134,0.0935,0.119,0.125,0.1095,0.1325,0.0475,0.1145,-0.062
0.007,0.275,0.2685,-0.141,-0.131,0.2715,-0.153,0.0825,0.1095,0.115,0.101,0.1225,0.045,0.1295,-0.061
-0.022,0.2745,0.297,-0.1265,-0.159,0.2855,-0.1575,0.0795,0.107,0.1125,0.0995,0.1225,0.044,0.139,-0.0595
-0.077,0.2645,0.3425,-0.094,-0.21,0.303,-0.1475,0.09,0.1175,0.1235,0.113,0.1365,0.047,0.139,-0.057
-0.0845,0.2545,0.34,-0.085,-0.2125,0.297,-0.151,0.0885,0.115,0.121,0.112,0.136,0.0475,0.139,-0.06
-0.0645,0.2125,0.2775,-0.074,-0.171,0.2445,-0.147,0.088,0.115,0.1205,0.112,0.1375,0.0475,0.116,-0.0615
-0.099,0.1475,0.247,-0.0245,-0.173,0.197,-0.142,0.0885,0.117,0.1235,0.1175,0.1435,0.052,0.0815,-0.0535
-0.123,0.1385,0.262,-0.008,-0.1925,0.2,-0.1495,0.078,0.108,0.1145,0.1115,0.1375,0.053,0.083,-0.0505
-0.1045,0.189,0.294,-0.0425,-0.1995,0.2415,-0.165,0.0535,0.0875,0.093,0.0915,0.1205,0.052,0.115,-0.0455
-0.072,0.2185,0.291,-0.0735,-0.1815,0.2545,-0.1665,0.037,0.0725,0.0795,0.0775,0.1085,0.052,0.1275,-0.04
-0.0315,0.228,0.26,-0.0985,-0.146,0.2435,-0.1515,0.0315,0.0685,0.078,0.0765,0.1085,0.05,0.122,-0.036
-0.028,0.249,0.278,-0.1105,-0.153,0.263,-0.125,0.039,0.076,0.087,0.087,0.121,0.046,0.1205,-0.0345
-0.043,0.25,0.2935,-0.1035,-0.1685,0.2715,-0.1105,0.048,0.085,0.0975,0.0965,0.1325,0.0455,0.1195,-0.036
-0.0195,0.2475,0.268,-0.114,-0.144,0.2575,-0.1195,0.042,0.079,0.0925,0.095,0.1285,0.0375,0.121,-0.037
0.006,0.266,0.261,-0.136,-0.1275,0.2635,-0.1275,0.035,0.071,0.087,0.09,0.1245,0.0315,0.124,-0.035
-0.0235,0.2685,0.2925,-0.1225,-0.158,0.28,-0.118,0.043,0.0785,0.096,0.0995,0.138,0.036,0.1225,-0.033
-0.0705,0.268,0.339,-0.099,-0.2045,0.3035,-0.0925,0.068,0.1045,0.1215,0.124,0.162,0.035,0.118,-0.037
-0.083,0.253,0.3365,-0.0855,-0.2095,0.2945,-0.089,0.068,0.1065,0.126,0.1255,0.165,0.0335,0.11,-0.036
-0.078,0.248,0.327,-0.0855,-0.2025,0.2875,-0.1055,0.0495,0.0875,0.1075,0.1095,0.1485,0.03,0.1205,-0.0355
-0.047,0.269,0.3165,-0.1115,-0.1815,0.2925,-0.12,0.0305,0.0695,0.0885,0.091,0.129,0.025,0.136,-0.037
-0.038,0.254,0.293,-0.1085,-0.1655,0.2735,-0.125,0.026,0.0645,0.0855,0.086,0.125,0.026,0.125,-0.037
-0.0635,0.1955,0.2595,-0.066,-0.1615,0.227,-0.1345,0.024,0.0615,0.085,0.085,0.125,0.027,0.1035,-0.0345
-0.0905,0.161,0.252,-0.0355,-0.1715,0.2065,-0.1315,0.023,0.059,0.0835,0.0855,0.126,0.022,0.097,-0.03
-0.117,0.1825,0.3,-0.033,-0.2085,0.2415,-0.124,0.032,0.067,0.0915,0.096,0.135,0.0215,0.105,-0.025
-0.057,0.2595,0.317,-0.1015,-0.187,0.288,-0.1385,0.0135,0.049,0.073,0.0795,0.1185,0.0195,0.141,-0.027
-0.0015,0.3345,0.337,-0.167,-0.169,0.3355,-0.143,0.0,0.0385,0.06,0.0665,0.109,0.015,0.1715,-0.028
-0.041,0.3215,0.363,-0.1405,-0.202,0.342,-0.1475,0.0005,0.041,0.0635,0.072,0.115,0.0185,0.16,-0.02
-0.065,0.288,0.3535,-0.112,-0.2095,0.3205,-0.1515,-0.003,0.0355,0.0605,0.07,0.1155,0.0215,0.149,-0.017
-0.0735,0.237,0.311,-0.082,-0.1925,0.274,-0.1305,0.0125,0.052,0.074,0.085,0.133,0.022,0.117,-0.0165
-0.083,0.2185,0.3015,-0.068,-0.192,0.26,-0.113,0.0235,0.064,0.0855,0.097,0.143,0.0225,0.1015,-0.0145
-0.072,0.2405,0.3135,-0.0845,-0.193,0.277,-0.1115,0.018,0.059,0.0825,0.092,0.1395,0.023,0.116,-0.0125
-0.0625,0.229,0.292,-0.0835,-0.1775,0.26,-0.1235,0.0085,0.049,0.0735,0.0835,0.1325,0.0215,0.115,-0.0115
-0.0305,0.252,0.2825,-0.111,-0.1565,0.267,-0.1465,-0.007,0.0325,0.0555,0.068,0.1175,0.0205,0.1305,-0.01
-0.015,0.2915,0.307,-0.1385,-0.161,0.299,-0.13,0.0085,0.0475,0.0715,0.081,0.134,0.0225,0.138,-0.0145
-0.063,0.2835,0.347,-0.1105,-0.205,0.315,-0.124,0.0135,0.0505,0.0775,0.086,0.139,0.024,0.1385,-0.016
-0.088,0.2455,0.3345,-0.0785,-0.2115,0.2895,-0.155,-0.01,0.026,0.053,0.0635,0.116,0.025,0.1405,-0.016
-0.0475,0.256,0.3045,-0.1045,-0.176,0.28,-0.1585,-0.0055,0.0315,0.056,0.0645,0.118,0.0235,0.1415,-0.0215
-0.0425,0.2785,0.3215,-0.1185,-0.182,0.2995,-0.155,0.0,0.0375,0.064,0.072,0.1235,0.023,0.1495,-0.02
-0.089,0.2575,0.347,-0.0845,-0.218,0.302,-0.148,0.004,0.041,0.0685,0.077,0.1295,0.0235,0.1385,-0.017
-0.0895,0.251,0.341,-0.081,-0.2155,0.2955,-0.14,0.0035,0.042,0.069,0.077,0.1295,0.023,0.129,-0.017
-0.0525,0.2305,0.2835,-0.0895,-0.168,0.257,-0.131,0.0025,0.0405,0.0705,0.079,0.13,0.0215,0.1075,-0.0175
-0.0355,0.213,0.249,-0.089,-0.1425,0.231,-0.1215,0.0005,0.0375,0.0665,0.075,0.1285,0.0185,0.0915,-0.015
-0.036,0.2305,0.2665,-0.0975,-0.151,0.248,-0.141,-0.02,0.0175,0.047,0.054,0.107,0.016,0.113,-0.0145
-0.0235,0.224,0.248,-0.1005,-0.136,0.236,-0.146,-0.022,0.015,0.0465,0.0525,0.1075,0.0195,0.1125,-0.0155
-0.0085,0.2345,0.2435,-0.1135,-0.126,0.239,-0.1405,-0.016,0.021,0.051,0.0585,0.1145,0.019,0.111,-0.0175
-0.0115,0.2475,0.2595,-0.118,-0.136,0.2535,-0.1335,-0.004,0.0345,0.063,0.0725,0.1275,0.017,0.1045,-0.0205
-0.032,0.2625,0.2955,-0.1155,-0.164,0.279,-0.1315,0.0015,0.0395,0.0665,0.08,0.1345,0.02,0.1075,-0.0165
-0.0405,0.2895,0.3305,-0.1245,-0.1855,0.3095,-0.138,-0.005,0.032,0.058,0.0715,0.1255,0.0175,0.13,-0.016
-0.021,0.288,0.3095,-0.1335,-0.1655,0.2985,-0.1375,-0.0105,0.0295,0.0535,0.067,0.121,0.017,0.135,-0.0195
-0.015,0.3055,0.321,-0.1455,-0.168,0.313,-0.1485,-0.0225,0.0165,0.041,0.0575,0.1095,0.018,0.1505,-0.0175
-0.0335,0.3025,0.3365,-0.1345,-0.185,0.319,-0.144,-0.016,0.0225,0.046,0.064,0.119,0.0175,0.1455,-0.016
-0.049,0.269,0.3185,-0.1105,-0.184,0.2935,-0.1325,-0.0055,0.0335,0.053,0.073,0.13,0.016,0.13,-0.014
-0.0445,0.2565,0.3015,-0.1065,-0.173,0.279,-0.14,-0.0075,0.029,0.049,0.07,0.1255,0.015,0.125,-0.014
-0.0275,0.2735,0.302,-0.1235,-0.165,0.2875,-0.159,-0.0255,0.012,0.0355,0.0545,0.113,0.016,0.135,-0.0135
-0.0335,0.271,0.305,-0.1185,-0.1695,0.2875,-0.1555,-0.023,0.0165,0.0395,0.055,0.1145,0.0175,0.1365,-0.0125
-0.0735,0.2445,0.319,-0.086,-0.1965,0.2815,-0.1465,-0.013,0.0245,0.048,0.0615,0.1185,0.0195,0.128,-0.014
-0.0815,0.2475,0.329,-0.0835,-0.205,0.288,-0.148,-0.0195,0.0175,0.0405,0.054,0.112,0.0195,0.14,-0.016
-0.0435,0.2805,0.3245,-0.1185,-0.184,0.302,-0.1455,-0.017,0.021,0.045,0.0565,0.1155,0.0195,0.1495,-0.014
-0.02,0.309,0.3295,-0.145,-0.1745,0.319,-0.1545,-0.023,0.0155,0.041,0.051,0.1095,0.0155,0.1535,-0.0135
-0.0155,0.2925,0.308,-0.139,-0.1615,0.3,-0.153,-0.0195,0.019,0.044,0.056,0.111,0.0155,0.1385,-0.016
-0.0065,0.301,0.308,-0.1475,-0.157,0.304,-0.1505,-0.0165,0.0205,0.0465,0.0585,0.1125,0.0135,0.142,-0.0155
0.0045,0.32,0.3155,-0.1625,-0.1555,0.3175,-0.153,-0.0235,0.0145,0.0405,0.052,0.108,0.011,0.153,-0.0145
-0.015,0.309,0.325,-0.147,-0.17,0.3165,-0.138,-0.012,0.024,0.0515,0.064,0.1195,0.013,0.139,-0.016
-0.0235,0.3105,0.3345,-0.144,-0.179,0.3225,-0.126,0.001,0.0355,0.063,0.0745,0.131,0.0135,0.1335,-0.0155
-0.008,0.2995,0.308,-0.146,-0.158,0.3035,-0.1255,0.0035,0.037,0.0645,0.0765,0.134,0.0135,0.1305,-0.0165
-0.001,0.296,0.2975,-0.148,-0.149,0.2965,-0.128,0.0015,0.0335,0.06,0.074,0.1295,0.009,0.1355,-0.0225
-0.0055,0.3075,0.3135,-0.1515,-0.1595,0.3105,-0.1405,-0.015,0.0195,0.044,0.06,0.1165,0.0065,0.145,-0.0165
-0.0405,0.271,0.312,-0.1155,-0.176,0.291,-0.148,-0.0235,0.009,0.0365,0.051,0.1105,0.0065,0.138,-0.014
-0.05,0.2695,0.32,-0.11,-0.185,0.2945,-0.146,-0.0205,0.013,0.0405,0.0555,0.1155,0.0055,0.14,-0.014
-0.03,0.3085,0.339,-0.1395,-0.1845,0.3235,-0.1405,-0.013,0.0195,0.049,0.064,0.124,0.0075,0.147,-0.0105
-0.0035,0.2795,0.283,-0.138,-0.143,0.281,-0.1435,-0.011,0.0215,0.0515,0.063,0.124,0.009,0.1325,-0.011
-0.007,0.2765,0.284,-0.135,-0.1455,0.28,-0.163,-0.028,0.0075,0.0355,0.0475,0.108,0.0115,0.144,-0.0085
-0.0705,0.31,0.381,-0.12,-0.226,0.3455,-0.1525,-0.023,0.014,0.042,0.0535,0.114,0.012,0.1695,-0.0085
-0.0815,0.347,0.429,-0.133,-0.2555,0.388,-0.1435,-0.0165,0.0215,0.0495,0.0615,0.12,0.0095,0.1865,-0.013
-0.0525,0.3325,0.3855,-0.1405,-0.219,0.359,-0.142,-0.0155,0.022,0.049,0.062,0.1195,0.0105,0.1775,-0.015
-0.0225,0.298,0.321,-0.138,-0.172,0.309,-0.135,-0.0085,0.029,0.0515,0.064,0.1215,0.01,0.158,-0.0165
0.016,0.311,0.2955,-0.164,-0.1395,0.303,-0.147,-0.014,0.0225,0.045,0.0565,0.1155,0.013,0.1545,-0.021
0.0255,0.253,0.2285,-0.1395,-0.1015,0.2405,-0.1435,-0.009,0.027,0.0505,0.061,0.1215,0.0175,0.116,-0.021
0.037,0.19,0.1535,-0.114,-0.0585,0.1715,-0.155,-0.0195,0.0155,0.039,0.05,0.109,0.015,0.0925,-0.022
0.0385,0.213,0.175,-0.126,-0.0685,0.1935,-0.1755,-0.031,0.0035,0.0275,0.037,0.098,0.0155,0.11,-0.0255
0.0235,0.2525,0.229,-0.138,-0.1025,0.2405,-0.162,-0.0095,0.0245,0.0475,0.0565,0.1155,0.0145,0.1115,-0.0265
0.039,0.2755,0.237,-0.1575,-0.099,0.256,-0.1455,0.013,0.047,0.07,0.0785,0.135,0.0105,0.108,-0.03
0.063,0.308,0.2455,-0.1855,-0.091,0.2765,-0.146,0.021,0.054,0.079,0.086,0.1435,0.0105,0.1225,-0.031
0.022,0.308,0.2865,-0.165,-0.132,0.297,-0.152,0.014,0.047,0.072,0.0785,0.14,0.0125,0.1355,-0.026
-0.064,0.308,0.3725,-0.122,-0.2185,0.34,-0.16,0.0055,0.0375,0.0625,0.069,0.131,0.0135,0.1655,-0.0265
-0.081,0.3105,0.3925,-0.115,-0.2365,0.3515,-0.165,0.0035,0.0355,0.06,0.0675,0.129,0.014,0.173,-0.0295
-0.051,0.286,0.3375,-0.1175,-0.194,0.3115,-0.1735,-0.0025,0.0295,0.055,0.062,0.1245,0.014,0.151,-0.027
-0.0675,0.281,0.349,-0.107,-0.2085,0.315,-0.1815,-0.0075,0.026,0.052,0.06,0.1195,0.0155,0.153,-0.0245
-0.0975,0.268,0.366,-0.0855,-0.232,0.317,-0.1815,-0.0065,0.027,0.052,0.0615,0.1235,0.0155,0.1555,-0.017
-0.0965,0.23,0.327,-0.067,-0.212,0.2785,-0.1825,-0.0135,0.0225,0.05,0.0575,0.123,0.015,0.141,-0.0085
-0.075,0.216,0.292,-0.0705,-0.1835,0.2535,-0.173,-0.0275,0.0115,0.041,0.047,0.116,0.012,0.131,-0.0045
-0.0145,0.2785,0.2935,-0.132,-0.154,0.286,-0.1485,-0.0315,0.0095,0.039,0.0485,0.1165,0.0085,0.137,-0.0015
0.044,0.343,0.3,-0.194,-0.128,0.3215,-0.1195,-0.0235,0.0195,0.0485,0.0585,0.1255,0.008,0.1445,0.0
0.062,0.3375,0.276,-0.2,-0.107,0.3065,-0.1175,-0.0275,0.0155,0.0425,0.0505,0.119,0.006,0.1495,0.0
0.0805,0.3045,0.224,-0.193,-0.0715,0.264,-0.134,-0.045,-0.0045,0.0255,0.033,0.101,0.008,0.144,0.002
0.0735,0.267,0.194,-0.1705,-0.0605,0.2305,-0.1515,-0.0645,-0.026,0.0055,0.0145,0.083,0.009,0.1295,0.005
0.08,0.28,0.2005,-0.1805,-0.0605,0.24,-0.157,-0.0685,-0.0295,0.003,0.0135,0.082,0.008,0.1285,-0.0005
0.1005,0.3245,0.2245,-0.2125,-0.062,0.274,-0.153,-0.0605,-0.021,0.01,0.0175,0.0865,0.0085,0.1415,-0.004
0.0635,0.3215,0.2585,-0.1925,-0.0975,0.2895,-0.1345,-0.037,0.0035,0.033,0.0415,0.108,0.0085,0.137,-0.008
-0.014,0.308,0.3225,-0.1475,-0.168,0.315,-0.093,0.006,0.046,0.078,0.0855,0.1505,0.0085,0.125,-0.012
-0.0625,0.309,0.372,-0.1235,-0.217,0.34,-0.0865,0.019,0.057,0.087,0.094,0.1575,0.007,0.1355,-0.015
-0.035,0.3175,0.353,-0.1415,-0.194,0.335,-0.104,0.0065,0.0425,0.073,0.0805,0.1425,0.0065,0.1475,-0.0195
-0.0085,0.304,0.313,-0.148,-0.1605,0.308,-0.114,0.001,0.0365,0.0675,0.075,0.1365,0.0055,0.131,-0.021
-0.014,0.2805,0.2955,-0.1335,-0.1545,0.288,-0.114,0.007,0.0405,0.073,0.0805,0.1425,0.005,0.1155,-0.021
-0.0305,0.2775,0.3085,-0.124,-0.1695,0.2925,-0.1185,0.0065,0.0395,0.069,0.078,0.1395,0.007,0.1275,-0.023
-0.031,0.3145,0.3455,-0.142,-0.1885,0.33,-0.147,-0.014,0.019,0.0475,0.057,0.1195,0.009,0.16,-0.024
-0.0065,0.3375,0.3445,-0.1655,-0.1755,0.3405,-0.1655,-0.023,0.008,0.0385,0.047,0.1105,0.009,0.1695,-0.021
-0.0095,0.2975,0.3075,-0.1445,-0.1585,0.302,-0.151,-0.001,0.03,0.058,0.0685,0.1325,0.01,0.1365,-0.018
-0.0325,0.265,0.298,-0.1165,-0.165,0.281,-0.139,0.015,0.047,0.075,0.0865,0.1515,0.011,0.1145,-0.0185
-0.0415,0.2565,0.2985,-0.1075,-0.17,0.277,-0.147,0.0105,0.0415,0.071,0.083,0.1495,0.015,0.114,-0.02
-0.05,0.2655,0.316,-0.108,-0.183,0.2905,-0.156,0.001,0.033,0.062,0.0745,0.1415,0.019,0.128,-0.0215
-0.0455,0.2915,0.3375,-0.1235,-0.191,0.314,-0.156,-0.009,0.023,0.0505,0.0635,0.13,0.016,0.145,-0.0185
-0.0205,0.352,0.3725,-0.166,-0.1965,0.362,-0.156,-0.021,0.011,0.0415,0.053,0.1195,0.01,0.175,-0.015
0.004,0.3705,0.367,-0.1875,-0.1815,0.3685,-0.1565,-0.0255,0.01,0.0395,0.0495,0.117,0.006,0.181,-0.0135
0.0225,0.3235,0.3015,-0.1735,-0.1395,0.3125,-0.1395,-0.025,0.0125,0.0405,0.0525,0.1195,0.0055,0.1505,-0.0065
0.0185,0.2955,0.2775,-0.157,-0.1295,0.2865,-0.127,-0.0355,0.003,0.033,0.046,0.114,0.006,0.1365,-0.0015
-0.0155,0.2675,0.2835,-0.1265,-0.1495,0.2755,-0.115,-0.033,0.0065,0.0355,0.05,0.1195,0.006,0.121,-0.0015
-0.054,0.2525,0.307,-0.0995,-0.1805,0.2795,-0.095,-0.019,0.0185,0.0505,0.062,0.131,0.0025,0.1215,-0.004
-0.059,0.2555,0.315,-0.0985,-0.187,0.285,-0.091,-0.0175,0.0205,0.0535,0.0625,0.133,0.0005,0.125,-0.007
-0.055,0.2765,0.3315,-0.111,-0.193,0.3035,-0.096,-0.0195,0.017,0.0515,0.061,0.1295,0.001,0.1315,-0.008
-0.054,0.3145,0.369,-0.1305,-0.2115,0.3415,-0.103,-0.0225,0.012,0.0475,0.0565,0.124,0.0005,0.142,-0.009
-0.037,0.2855,0.323,-0.1245,-0.18,0.304,-0.097,-0.017,0.019,0.054,0.064,0.132,0.0015,0.117,-0.0075
-0.032,0.247,0.28,-0.108,-0.156,0.263,-0.094,-0.0135,0.023,0.058,0.0665,0.1335,0.0005,0.1025,-0.0055
-0.007,0.28,0.2875,-0.1365,-0.1475,0.2835,-0.112,-0.0265,0.01,0.043,0.0495,0.118,0.0005,0.117,-0.001
0.039,0.3155,0.277,-0.1775,-0.119,0.296,-0.1295,-0.0415,-0.0055,0.028,0.0365,0.1045,0.0025,0.133,-0.001
0.0275,0.3155,0.288,-0.1715,-0.1305,0.3015,-0.142,-0.048,-0.01,0.0205,0.0325,0.101,0.0065,0.1385,-0.0045
0.02,0.323,0.3035,-0.1715,-0.142,0.313,-0.1495,-0.0515,-0.014,0.0155,0.0295,0.0965,0.0065,0.1495,-0.0025
0.0175,0.3125,0.2955,-0.1655,-0.139,0.304,-0.165,-0.064,-0.027,0.0015,0.0165,0.083,0.0025,0.1565,-0.0005
-0.0385,0.263,0.302,-0.1125,-0.17,0.2825,-0.1685,-0.0625,-0.0255,0.006,0.02,0.086,0.002,0.144,0.0005
-0.047,0.2715,0.3185,-0.1125,-0.183,0.295,-0.1575,-0.0525,-0.017,0.013,0.027,0.0955,0.001,0.1515,-0.0005
-0.032,0.2805,0.3135,-0.1245,-0.173,0.2965,-0.1505,-0.0485,-0.0145,0.01,0.027,0.0985,-0.0005,0.1515,-0.001
-0.045,0.269,0.3145,-0.1125,-0.1795,0.2915,-0.1375,-0.0355,-0.002,0.025,0.042,0.11,0.001,0.1455,-0.001
-0.044,0.281,0.326,-0.1185,-0.185,0.303,-0.134,-0.0275,0.0065,0.032,0.0505,0.119,0.003,0.1435,-0.0035
-0.049,0.286,0.3355,-0.1185,-0.192,0.3105,-0.144,-0.0365,-0.0035,0.021,0.04,0.108,0.0,0.146,-0.0065
-0.0495,0.2935,0.343,-0.1225,-0.196,0.318,-0.158,-0.0455,-0.013,0.012,0.03,0.098,-0.0005,0.1555,-0.004
-0.0405,0.2835,0.3245,-0.1215,-0.1825,0.3035,-0.156,-0.04,-0.0075,0.0175,0.0345,0.1035,0.0025,0.1485,-0.0005
-0.0315,0.2755,0.3075,-0.1225,-0.1695,0.2915,-0.158,-0.043,-0.011,0.015,0.032,0.099,0.0,0.152,-0.005
-0.0105,0.28,0.291,-0.135,-0.1505,0.285,-0.1495,-0.0355,-0.003,0.0235,0.0405,0.1075,-0.002,0.141,-0.006
0.0115,0.2915,0.281,-0.152,-0.1345,0.286,-0.134,-0.0195,0.013,0.0365,0.054,0.1215,-0.003,0.128,-0.004
0.0285,0.306,0.278,-0.1675,-0.125,0.2915,-0.1395,-0.024,0.009,0.0325,0.0495,0.117,-0.005,0.1345,-0.006
0.0235,0.31,0.2875,-0.167,-0.132,0.2985,-0.1245,-0.018,0.015,0.042,0.056,0.1245,-0.006,0.1295,-0.0065
-0.0085,0.3115,0.3205,-0.152,-0.1645,0.316,-0.119,-0.016,0.016,0.0425,0.057,0.1265,-0.0035,0.134,-0.0075
-0.0255,0.312,0.338,-0.1435,-0.182,0.325,-0.1345,-0.0285,0.0035,0.0335,0.0465,0.115,-0.001,0.1395,-0.008
-0.0435,0.325,0.369,-0.141,-0.206,0.3465,-0.144,-0.0345,-0.002,0.0275,0.04,0.107,-0.001,0.1505,-0.005
-0.039,0.311,0.3505,-0.136,-0.195,0.3305,-0.1565,-0.0385,-0.0065,0.024,0.036,0.1015,-0.0005,0.153,-0.0085
-0.0315,0.255,0.287,-0.112,-0.159,0.2705,-0.1565,-0.0285,0.003,0.035,0.0465,0.115,0.0005,0.12,-0.0085
-0.0445,0.227,0.272,-0.0915,-0.158,0.249,-0.1605,-0.028,0.003,0.0355,0.047,0.1175,0.0025,0.1165,-0.0065
-0.055,0.238,0.294,-0.0915,-0.1745,0.266,-0.18,-0.049,-0.017,0.0155,0.026,0.0965,0.003,0.14,-0.0075
-0.0585,0.2715,0.3305,-0.1065,-0.1945,0.3005,-0.1855,-0.0625,-0.0295,0.0025,0.0155,0.086,0.0025,0.153,-0.0035
-0.0285,0.2985,0.327,-0.1355,-0.178,0.3125,-0.1685,-0.0575,-0.0225,0.009,0.0245,0.094,0.0005,0.1525,-0.0005
-0.02,0.2885,0.309,-0.1345,-0.1645,0.2985,-0.1545,-0.046,-0.0115,0.019,0.0375,0.1065,0.0025,0.142,0.0005
-0.01,0.276,0.286,-0.1335,-0.148,0.2805,-0.153,-0.041,-0.01,0.021,0.0405,0.11,0.003,0.14,-0.001
0.026,0.2725,0.247,-0.1495,-0.1105,0.2595,-0.149,-0.0375,-0.0065,0.025,0.0445,0.116,0.0005,0.1265,0.0005
0.0395,0.281,0.242,-0.1605,-0.1015,0.2615,-0.162,-0.049,-0.017,0.016,0.0355,0.107,-0.0015,0.1245,0.002
0.032,0.296,0.2645,-0.164,-0.116,0.28,-0.181,-0.0665,-0.035,-0.0015,0.02,0.0895,0.001,0.1385,0.005
0.052,0.321,0.2695,-0.187,-0.1085,0.295,-0.196,-0.084,-0.0515,-0.018,0.004,0.0745,0.005,0.154,0.0055
0.0705,0.3185,0.248,-0.195,-0.0885,0.283,-0.191,-0.084,-0.0525,-0.017,0.002,0.073,0.0025,0.1545,0.002
0.056,0.285,0.2295,-0.1705,-0.087,0.257,-0.1685,-0.068,-0.0375,-0.0025,0.0145,0.0835,-0.0005,0.1415,0.003
0.0245,0.25,0.226,-0.1375,-0.101,0.238,-0.1485,-0.05,-0.017,0.0175,0.032,0.103,0.0035,0.1275,0.001
-0.017,0.2335,0.2515,-0.1085,-0.134,0.242,-0.125,-0.0245,0.0085,0.0425,0.0575,0.128,0.0035,0.108,-0.0005
-0.0405,0.2715,0.313,-0.116,-0.177,0.292,-0.11,-0.0075,0.0245,0.06,0.074,0.142,-0.0045,0.108,0.0
-0.0645,0.2865,0.3515,-0.111,-0.208,0.319,-0.122,-0.0155,0.0165,0.054,0.068,0.135,-0.009,0.123,0.0005
-0.0525,0.2875,0.3405,-0.1175,-0.1965,0.314,-0.1475,-0.0375,-0.0085,0.03,0.044,0.1115,-0.009,0.1335,0.0015
-0.041,0.2975,0.3385,-0.1285,-0.19,0.318,-0.148,-0.0395,-0.0085,0.028,0.041,0.1105,-0.01,0.136,0.0045
-0.0365,0.292,0.3285,-0.128,-0.1825,0.31,-0.142,-0.034,-0.0025,0.032,0.048,0.1175,-0.0105,0.1315,0.0025
-0.025,0.2855,0.311,-0.1305,-0.168,0.298,-0.134,-0.028,0.0045,0.0395,0.058,0.127,-0.0105,0.115,0.001
-0.045,0.295,0.34,-0.125,-0.1925,0.317,-0.1345,-0.0335,0.002,0.0375,0.057,0.126,-0.009,0.118,0.005
-0.047,0.3195,0.367,-0.1365,-0.207,0.343,-0.1495,-0.0515,-0.018,0.0165,0.0335,0.104,-0.0085,0.1475,0.002
-0.0435,0.3195,0.363,-0.138,-0.203,0.341,-0.1535,-0.059,-0.025,0.0075,0.027,0.098,-0.006,0.1545,0.0045
-0.0345,0.322,0.357,-0.144,-0.1955,0.339,-0.1505,-0.0585,-0.0225,0.0105,0.031,0.102,-0.0015,0.152,0.0075
0.003,0.3145,0.3125,-0.159,-0.1545,0.3135,-0.1505,-0.057,-0.0225,0.0115,0.031,0.101,-0.0015,0.1445,0.0095
0.0135,0.2855,0.273,-0.1495,-0.1295,0.279,-0.1495,-0.059,-0.0245,0.01,0.0305,0.101,-0.001,0.1295,0.0125
-0.01,0.309,0.32,-0.15,-0.165,0.314,-0.161,-0.072,-0.0375,-0.0015,0.0175,0.088,-0.0015,0.153,0.012
-0.003,0.2935,0.297,-0.146,-0.15,0.295,-0.167,-0.0725,-0.0375,-0.003,0.0155,0.0885,-0.002,0.1455,0.0095
0.003,0.2255,0.223,-0.1145,-0.11,0.224,-0.1545,-0.053,-0.0175,0.016,0.0365,0.109,-0.0025,0.0995,0.0095
-0.006,0.2675,0.2745,-0.131,-0.1405,0.271,-0.1525,-0.044,-0.01,0.0245,0.044,0.1155,-0.004,0.1155,0.012
0.003,0.3475,0.3455,-0.1755,-0.171,0.346,-0.1695,-0.0585,-0.025,0.0105,0.0285,0.1,-0.0045,0.156,0.0085
-0.0025,0.3405,0.3435,-0.1695,-0.173,0.342,-0.1825,-0.0665,-0.0345,0.001,0.019,0.089,-0.0065,0.16,0.0065
0.0055,0.31,0.305,-0.158,-0.15,0.307,-0.1715,-0.056,-0.0245,0.0095,0.0275,0.097,-0.0085,0.1425,0.005
0.038,0.301,0.2635,-0.17,-0.1125,0.282,-0.1685,-0.053,-0.0205,0.012,0.031,0.0995,-0.01,0.129,0.0055
0.054,0.2835,0.23,-0.169,-0.088,0.2565,-0.1685,-0.048,-0.014,0.019,0.0385,0.1085,-0.0085,0.11,0.008
0.043,0.2775,0.2355,-0.1605,-0.0965,0.2565,-0.1645,-0.051,-0.017,0.018,0.036,0.1065,-0.0115,0.1085,0.01
0.017,0.26,0.2435,-0.1385,-0.113,0.2515,-0.1535,-0.054,-0.0195,0.0145,0.0345,0.104,-0.015,0.104,0.014
-0.0095,0.2165,0.226,-0.104,-0.1175,0.221,-0.1425,-0.0555,-0.0195,0.015,0.038,0.106,-0.0145,0.09,0.017
-0.0125,0.2255,0.2385,-0.1065,-0.1255,0.2315,-0.1515,-0.0705,-0.033,0.0035,0.025,0.0915,-0.0185,0.104,0.015
0.019,0.2785,0.26,-0.149,-0.1205,0.269,-0.152,-0.077,-0.0395,-0.002,0.0195,0.0865,-0.0185,0.1225,0.014
0.029,0.305,0.276,-0.1675,-0.1235,0.2905,-0.1365,-0.0755,-0.0395,0.0,0.0225,0.09,-0.0145,0.1285,0.0195
0.0315,0.3225,0.2915,-0.1775,-0.13,0.3065,-0.133,-0.0815,-0.0465,-0.0065,0.017,0.0865,-0.015,0.14,0.02
0.029,0.334,0.3055,-0.182,-0.1385,0.3195,-0.134,-0.085,-0.0505,-0.013,0.015,0.0835,-0.016,0.157,0.018
-0.0035,0.3275,0.331,-0.162,-0.167,0.329,-0.1415,-0.09,-0.0555,-0.0185,0.009,0.0765,-0.017,0.165,0.021
-0.016,0.3095,0.3265,-0.147,-0.1715,0.318,-0.151,-0.0915,-0.0545,-0.017,0.007,0.0785,-0.0135,0.1485,0.024
-0.027,0.2625,0.29,-0.118,-0.1585,0.276,-0.1465,-0.0805,-0.043,-0.0055,0.018,0.0915,-0.0125,0.1215,0.0215
-0.0345,0.2395,0.2745,-0.103,-0.1545,0.257,-0.155,-0.084,-0.0465,-0.008,0.015,0.088,-0.0115,0.1225,0.0165
-0.0245,0.254,0.279,-0.115,-0.152,0.2665,-0.163,-0.0865,-0.05,-0.0115,0.0115,0.084,-0.014,0.1365,0.011
-0.006,0.289,0.2955,-0.142,-0.151,0.292,-0.1765,-0.098,-0.0615,-0.023,-0.0005,0.071,-0.0165,0.151,0.013
-0.0015,0.291,0.2925,-0.145,-0.147,0.2915,-0.1815,-0.105,-0.069,-0.03,-0.007,0.063,-0.0165,0.152,0.014
-0.0225,0.2625,0.2855,-0.1205,-0.154,0.274,-0.164,-0.0905,-0.0555,-0.016,0.006,0.0745,-0.019,0.1435,0.0105
-0.0205,0.288,0.309,-0.134,-0.165,0.298,-0.1645,-0.089,-0.055,-0.0155,0.0055,0.072,-0.018,0.1475,0.011
-0.0315,0.2785,0.3105,-0.1235,-0.171,0.294,-0.17,-0.0925,-0.058,-0.0185,0.0015,0.068,-0.017,0.143,0.0105
-0.0545,0.268,0.323,-0.107,-0.1885,0.295,-0.1645,-0.089,-0.056,-0.016,0.005,0.0735,-0.016,0.1415,0.0115
-0.043,0.321,0.3645,-0.139,-0.204,0.3425,-0.168,-0.091,-0.059,-0.0215,0.002,0.071,-0.0155,0.166,0.011
-0.0145,0.2845,0.299,-0.1355,-0.1565,0.2915,-0.155,-0.076,-0.0415,-0.0035,0.0165,0.0845,-0.015,0.141,0.005
-0.0275,0.188,0.216,-0.0805,-0.1215,0.2015,-0.137,-0.0575,-0.0225,0.015,0.035,0.104,-0.016,0.081,0.005
-0.0585,0.182,0.241,-0.062,-0.1495,0.211,-0.142,-0.055,-0.0215,0.0145,0.035,0.105,-0.0145,0.0775,0.0085
-0.0075,0.26,0.268,-0.1265,-0.138,0.264,-0.137,-0.0435,-0.0085,0.025,0.0445,0.111,-0.015,0.101,0.0055
0.0005,0.2745,0.2745,-0.138,-0.137,0.2745,-0.158,-0.059,-0.0245,0.008,0.028,0.0945,-0.0165,0.12,0.0065
-0.019,0.228,0.2475,-0.1045,-0.1335,0.2375,-0.1855,-0.0845,-0.048,-0.0165,0.0055,0.072,-0.0165,0.1155,0.0135
0.0025,0.248,0.2455,-0.1255,-0.1215,0.2465,-0.1925,-0.0845,-0.049,-0.0165,0.005,0.0725,-0.0175,0.116,0.012
-0.029,0.254,0.2835,-0.113,-0.156,0.2685,-0.191,-0.0775,-0.0445,-0.01,0.012,0.0805,-0.014,0.127,0.011
-0.0605,0.1945,0.2555,-0.0675,-0.158,0.225,-0.1835,-0.0715,-0.0385,-0.0035,0.0185,0.087,-0.013,0.1045,0.0145
-0.041,0.183,0.2245,-0.0715,-0.133,0.2035,-0.1905,-0.0775,-0.046,-0.009,0.011,0.082,-0.0135,0.1015,0.0145
0.0065,0.235,0.229,-0.121,-0.1115,0.232,-0.1975,-0.085,-0.053,-0.018,0.004,0.075,-0.0135,0.1225,0.0165
0.029,0.262,0.2335,-0.1455,-0.1025,0.2475,-0.1965,-0.0855,-0.052,-0.017,0.0065,0.0775,-0.0115,0.1325,0.0165
0.0535,0.293,0.24,-0.1735,-0.0935,0.266,-0.1915,-0.0855,-0.053,-0.0155,0.0095,0.0805,-0.011,0.14,0.013
0.062,0.332,0.271,-0.1975,-0.1045,0.3015,-0.174,-0.076,-0.042,-0.005,0.02,0.091,-0.011,0.138,0.015
0.0265,0.3575,0.332,-0.1925,-0.1525,0.3445,-0.149,-0.0525,-0.0175,0.02,0.0445,0.1155,-0.0115,0.145,0.015
0.0195,0.3795,0.3605,-0.1995,-0.1705,0.37,-0.143,-0.052,-0.016,0.022,0.046,0.1175,-0.0165,0.157,0.012
-0.0125,0.352,0.365,-0.17,-0.189,0.358,-0.1425,-0.0565,-0.0215,0.0165,0.039,0.112,-0.0175,0.1495,0.013
-0.0395,0.3195,0.3595,-0.14,-0.1995,0.339,-0.145,-0.054,-0.021,0.018,0.0405,0.113,-0.0165,0.138,0.011
-0.033,0.315,0.3485,-0.1415,-0.191,0.3315,-0.143,-0.049,-0.015,0.025,0.047,0.12,-0.0165,0.1295,0.008
-0.0255,0.31,0.336,-0.1425,-0.181,0.323,-0.1475,-0.0545,-0.0215,0.02,0.04,0.1135,-0.017,0.131,0.009
-0.0005,0.2995,0.3,-0.15,-0.1505,0.2995,-0.163,-0.0715,-0.04,0.0045,0.0235,0.0945,-0.022,0.132,0.01
-0.015,0.2975,0.313,-0.1415,-0.164,0.305,-0.1685,-0.0765,-0.045,0.0005,0.02,0.089,-0.0225,0.134,0.0135
-0.0505,0.2965,0.3475,-0.1235,-0.199,0.322,-0.1665,-0.0805,-0.0485,-0.003,0.016,0.087,-0.0205,0.142,0.018
-0.037,0.258,0.2955,-0.111,-0.1665,0.2765,-0.1575,-0.079,-0.046,0.0,0.018,0.0905,-0.0235,0.123,0.0195
0.0035,0.2475,0.2445,-0.126,-0.1205,0.2455,-0.1525,-0.0765,-0.0425,0.0025,0.022,0.0945,-0.023,0.1085,0.018
0.0255,0.249,0.224,-0.1375,-0.099,0.2365,-0.14,-0.064,-0.03,0.0145,0.035,0.107,-0.0225,0.0975,0.0205
0.0115,0.2645,0.2535,-0.138,-0.121,0.2585,-0.141,-0.066,-0.032,0.0115,0.034,0.1065,-0.022,0.103,0.0215
-0.0375,0.286,0.3245,-0.1245,-0.181,0.305,-0.154,-0.0855,-0.0485,-0.0075,0.0175,0.091,-0.018,0.131,0.0215
-0.057,0.251,0.3085,-0.0975,-0.1825,0.2795,-0.1565,-0.09,-0.053,-0.011,0.014,0.088,-0.012,0.1205,0.0235
-0.028,0.25,0.279,-0.111,-0.1535,0.264,-0.154,-0.0805,-0.0455,-0.003,0.0205,0.095,-0.01,0.1155,0.024
0.0125,0.279,0.267,-0.146,-0.127,0.2725,-0.1585,-0.082,-0.0455,-0.004,0.0195,0.0935,-0.012,0.1275,0.0265
0.039,0.303,0.2645,-0.1715,-0.1125,0.2835,-0.1715,-0.096,-0.0605,-0.0175,0.0055,0.0805,-0.0135,0.1355,0.026
0.031,0.3115,0.281,-0.1715,-0.125,0.296,-0.1635,-0.089,-0.054,-0.013,0.009,0.083,-0.0155,0.131,0.0225
0.025,0.2975,0.273,-0.1615,-0.124,0.285,-0.151,-0.076,-0.041,0.0005,0.0235,0.095,-0.014,0.112,0.0225
0.05,0.311,0.2615,-0.181,-0.106,0.286,-0.1715,-0.0955,-0.059,-0.0175,0.0055,0.0765,-0.0155,0.1255,0.022
0.064,0.3175,0.2535,-0.191,-0.095,0.2855,-0.189,-0.1065,-0.071,-0.033,-0.0095,0.0625,-0.0185,0.1365,0.0155
0.0175,0.2835,0.267,-0.151,-0.1245,0.275,-0.173,-0.083,-0.0505,-0.011,0.011,0.0815,-0.0165,0.124,0.013
-0.009,0.257,0.2665,-0.1245,-0.1375,0.2615,-0.1685,-0.077,-0.045,-0.006,0.0155,0.086,-0.017,0.12,0.0095
0.0155,0.246,0.231,-0.131,-0.108,0.2385,-0.1745,-0.075,-0.044,-0.0055,0.019,0.0875,-0.0215,0.1085,0.005
0.008,0.2475,0.24,-0.128,-0.116,0.2435,-0.1755,-0.072,-0.0415,-0.002,0.0215,0.089,-0.0225,0.106,0.0045
-0.017,0.245,0.262,-0.1145,-0.1395,0.253,-0.1715,-0.0705,-0.0385,-0.0005,0.022,0.0905,-0.021,0.1065,0.004
-0.0125,0.2525,0.266,-0.1205,-0.139,0.259,-0.176,-0.0745,-0.043,-0.0035,0.019,0.088,-0.021,0.114,0.0085
-0.022,0.276,0.299,-0.127,-0.1605,0.287,-0.1855,-0.076,-0.0455,-0.0055,0.016,0.0845,-0.0185,0.128,0.011
-0.0445,0.299,0.3445,-0.1275,-0.1945,0.3215,-0.1915,-0.0775,-0.047,-0.007,0.016,0.084,-0.0185,0.14,0.0075
-0.053,0.287,0.3405,-0.1175,-0.1965,0.3135,-0.1935,-0.088,-0.0575,-0.018,0.0075,0.076,-0.022,0.14,0.0085
-0.0665,0.263,0.3295,-0.0985,-0.198,0.296,-0.2,-0.097,-0.0625,-0.0245,0.0015,0.07,-0.0185,0.138,0.0125
-0.073,0.2635,0.337,-0.0955,-0.205,0.3,-0.213,-0.106,-0.0675,-0.033,-0.007,0.0615,-0.0165,0.146,0.0135
-0.08,0.2175,0.298,-0.069,-0.189,0.2575,-0.198,-0.094,-0.057,-0.0225,0.0035,0.0735,-0.02,0.1145,0.015
-0.0465,0.2255,0.2725,-0.0895,-0.1595,0.2485,-0.1945,-0.091,-0.053,-0.017,0.008,0.079,-0.0165,0.105,0.0175
0.014,0.267,0.253,-0.1405,-0.1195,0.2595,-0.202,-0.0975,-0.0575,-0.024,0.0035,0.0745,-0.0135,0.1155,0.019
0.006,0.2475,0.242,-0.127,-0.118,0.2445,-0.1965,-0.0925,-0.053,-0.0205,0.0075,0.078,-0.0135,0.113,0.022
-0.014,0.259,0.273,-0.1225,-0.1435,0.2655,-0.183,-0.086,-0.0475,-0.015,0.0135,0.084,-0.0145,0.122,0.021
-0.016,0.3015,0.318,-0.143,-0.167,0.3095,-0.147,-0.068,-0.0285,0.004,0.034,0.105,-0.0185,0.125,0.02
-0.061,0.31,0.3715,-0.125,-0.2165,0.3405,-0.126,-0.052,-0.0125,0.02,0.0505,0.1215,-0.013,0.134,0.021
-0.0785,0.3105,0.39,-0.1165,-0.2345,0.35,-0.134,-0.0545,-0.015,0.016,0.0485,0.1195,-0.0095,0.1485,0.018
-0.0005,0.3445,0.346,-0.172,-0.173,0.345,-0.144,-0.057,-0.017,0.0155,0.047,0.1185,-0.0135,0.143,0.017
0.067,0.3635,0.297,-0.2155,-0.1145,0.33,-0.136,-0.0495,-0.0115,0.022,0.0525,0.122,-0.019,0.12,0.0165
0.042,0.3375,0.2965,-0.19,-0.1275,0.3165,-0.124,-0.043,-0.0075,0.026,0.0555,0.1235,-0.0225,0.114,0.015
0.0685,0.3385,0.271,-0.204,-0.101,0.3045,-0.128,-0.045,-0.008,0.0255,0.052,0.119,-0.0235,0.121,0.009
0.1355,0.388,0.253,-0.262,-0.0585,0.3205,-0.136,-0.0515,-0.0165,0.0175,0.044,0.111,-0.0235,0.1335,0.008
0.13,0.3975,0.268,-0.264,-0.069,0.3325,-0.1385,-0.057,-0.024,0.0105,0.0385,0.1075,-0.0225,0.1415,0.0095
0.0925,0.3475,0.2555,-0.2205,-0.0815,0.3015,-0.1395,-0.0615,-0.0285,0.008,0.037,0.106,-0.0215,0.1215,0.011
0.0545,0.314,0.26,-0.1845,-0.103,0.287,-0.1575,-0.0715,-0.0375,-0.0025,0.0285,0.098,-0.022,0.108,0.0185
0.0245,0.297,0.273,-0.161,-0.124,0.2845,-0.1685,-0.0915,-0.054,-0.019,0.011,0.0825,-0.0265,0.116,0.0215
-0.0095,0.2695,0.2795,-0.1305,-0.1445,0.274,-0.1665,-0.101,-0.0605,-0.026,0.005,0.079,-0.0275,0.114,0.025
-0.0055,0.266,0.272,-0.1305,-0.1385,0.2685,-0.1625,-0.098,-0.0545,-0.021,0.013,0.088,-0.023,0.1065,0.025
0.016,0.2675,0.2525,-0.142,-0.1185,0.26,-0.1585,-0.0985,-0.0585,-0.0235,0.01,0.0825,-0.026,0.1075,0.0205
0.009,0.243,0.2345,-0.126,-0.113,0.2385,-0.1615,-0.103,-0.065,-0.0325,0.001,0.0745,-0.027,0.108,0.02
-0.0195,0.2025,0.2225,-0.0915,-0.121,0.212,-0.177,-0.1185,-0.08,-0.0475,-0.0115,0.062,-0.0225,0.1045,0.0235
-0.0365,0.21,0.247,-0.087,-0.142,0.2285,-0.192,-0.129,-0.09,-0.0585,-0.0225,0.0505,-0.0215,0.1145,0.0275
-0.032,0.24,0.273,-0.104,-0.1525,0.256,-0.1925,-0.126,-0.0875,-0.057,-0.0225,0.0515,-0.022,0.127,0.028
-0.026,0.26,0.2865,-0.1175,-0.156,0.273,-0.184,-0.115,-0.077,-0.047,-0.013,0.0605,-0.021,0.136,0.0275
-0.0305,0.2765,0.308,-0.123,-0.1695,0.292,-0.167,-0.101,-0.0615,-0.032,0.0025,0.0755,-0.0205,0.1385,0.021
-0.037,0.2915,0.3295,-0.1275,-0.1835,0.3105,-0.1725,-0.1035,-0.0675,-0.0355,-0.0005,0.072,-0.0195,0.144,0.021
-0.0065,0.3395,0.3465,-0.167,-0.1765,0.3425,-0.176,-0.102,-0.0645,-0.0345,-0.0015,0.0715,-0.0195,0.158,0.0235
0.0045,0.3515,0.347,-0.1785,-0.1715,0.349,-0.16,-0.082,-0.044,-0.0135,0.0185,0.0925,-0.0205,0.147,0.021
-0.0075,0.322,0.33,-0.1575,-0.169,0.326,-0.161,-0.0735,-0.0375,-0.007,0.025,0.0985,-0.0185,0.1325,0.022
-0.008,0.291,0.2995,-0.142,-0.1535,0.295,-0.1685,-0.0795,-0.043,-0.011,0.0195,0.093,-0.0185,0.13,0.0205
-0.015,0.2845,0.3,-0.1355,-0.1575,0.292,-0.1755,-0.081,-0.0445,-0.011,0.0195,0.091,-0.021,0.135,0.0165
0.021,0.3415,0.321,-0.1815,-0.15,0.331,-0.1885,-0.0915,-0.0565,-0.024,0.009,0.0785,-0.022,0.1495,0.017
0.072,0.362,0.2905,-0.217,-0.1095,0.326,-0.192,-0.1035,-0.0685,-0.0345,-0.0015,0.0675,-0.021,0.1485,0.018
0.0305,0.34,0.31,-0.1855,-0.14,0.3245,-0.1875,-0.108,-0.072,-0.038,-0.005,0.063,-0.0205,0.15,0.0185
0.012,0.312,0.3005,-0.1625,-0.144,0.306,-0.171,-0.104,-0.0685,-0.0345,0.0005,0.0685,-0.0225,0.134,0.023
0.08,0.274,0.194,-0.177,-0.057,0.2335,-0.149,-0.0855,-0.05,-0.0155,0.019,0.088,-0.024,0.0965,0.0225
0.102,0.283,0.182,-0.1925,-0.04,0.232,-0.1425,-0.0855,-0.0485,-0.0145,0.0205,0.089,-0.0215,0.095,0.0235
0.0745,0.3135,0.24,-0.194,-0.0825,0.2765,-0.148,-0.095,-0.058,-0.025,0.0095,0.077,-0.018,0.1185,0.028
0.045,0.3475,0.303,-0.1965,-0.129,0.325,-0.1565,-0.0935,-0.0585,-0.025,0.009,0.0765,-0.0135,0.1435,0.027
0.0055,0.3725,0.3675,-0.189,-0.181,0.3695,-0.1575,-0.09,-0.054,-0.022,0.0115,0.082,-0.01,0.1605,0.026
-0.025,0.382,0.4075,-0.179,-0.216,0.3945,-0.159,-0.088,-0.0515,-0.0175,0.014,0.086,-0.0105,0.166,0.0265
-0.0345,0.3685,0.4035,-0.1675,-0.219,0.386,-0.157,-0.0895,-0.052,-0.016,0.016,0.087,-0.011,0.165,0.0295
-0.0615,0.303,0.3655,-0.121,-0.2135,0.334,-0.1485,-0.081,-0.045,-0.0095,0.0235,0.0945,-0.012,0.1385,0.031
-0.0735,0.2455,0.3195,-0.086,-0.1965,0.282,-0.139,-0.066,-0.0305,0.007,0.0395,0.1095,-0.0165,0.1025,0.03
-0.0195,0.233,0.2535,-0.107,-0.1365,0.243,-0.143,-0.071,-0.035,0.002,0.033,0.1015,-0.022,0.096,0.024
0.0275,0.2435,0.2165,-0.136,-0.0945,0.23,-0.1525,-0.077,-0.043,-0.006,0.025,0.093,-0.022,0.099,0.0225
0.0095,0.2805,0.2715,-0.1455,-0.131,0.276,-0.159,-0.0795,-0.044,-0.0065,0.023,0.0915,-0.024,0.1265,0.0235
0.001,0.2935,0.2925,-0.1475,-0.146,0.293,-0.167,-0.0855,-0.0495,-0.0115,0.017,0.086,-0.0275,0.135,0.02
0.009,0.281,0.2725,-0.1455,-0.1315,0.2765,-0.171,-0.0875,-0.0515,-0.013,0.017,0.0855,-0.0275,0.123,0.019
0.016,0.296,0.2805,-0.156,-0.1325,0.288,-0.1755,-0.0925,-0.0545,-0.018,0.011,0.0805,-0.0255,0.137,0.0185
0.0515,0.3025,0.2515,-0.177,-0.1,0.2765,-0.172,-0.0955,-0.0575,-0.019,0.008,0.0775,-0.0275,0.1275,0.016
0.0755,0.3055,0.2305,-0.191,-0.0775,0.268,-0.173,-0.101,-0.0635,-0.023,0.002,0.0725,-0.0285,0.119,0.0145
0.0565,0.3105,0.2545,-0.184,-0.099,0.282,-0.1685,-0.0945,-0.0565,-0.018,0.0085,0.0775,-0.025,0.126,0.014
-0.002,0.295,0.2975,-0.1465,-0.15,0.296,-0.1475,-0.07,-0.0325,0.006,0.0315,0.1,-0.025,0.1195,0.0135
-0.038,0.28,0.3185,-0.121,-0.1785,0.299,-0.1405,-0.0615,-0.0245,0.0145,0.04,0.109,-0.0225,0.1065,0.016
-0.02,0.278,0.299,-0.1295,-0.1595,0.2885,-0.1455,-0.0685,-0.032,0.0065,0.0325,0.1005,-0.0225,0.108,0.0135
-0.003,0.271,0.274,-0.134,-0.1385,0.272,-0.1545,-0.0785,-0.041,-0.005,0.021,0.0915,-0.0215,0.1105,0.012
0.006,0.2735,0.268,-0.14,-0.131,0.2705,-0.1705,-0.09,-0.054,-0.018,0.009,0.079,-0.0185,0.1135,0.0165
-0.0105,0.2895,0.3005,-0.1395,-0.1555,0.295,-0.1805,-0.0995,-0.0625,-0.029,-0.0005,0.0675,-0.021,0.129,0.016
-0.0475,0.3175,0.3655,-0.1355,-0.2065,0.3415,-0.177,-0.097,-0.0585,-0.0275,0.0005,0.0705,-0.0225,0.153,0.0145
-0.0535,0.352,0.406,-0.1495,-0.23,0.3785,-0.171,-0.086,-0.0485,-0.016,0.0125,0.0835,-0.023,0.1625,0.0155
-0.0615,0.349,0.411,-0.144,-0.236,0.3795,-0.166,-0.077,-0.0385,-0.0055,0.0235,0.094,-0.0225,0.158,0.0165
-0.0775,0.3355,0.4135,-0.1295,-0.2455,0.3745,-0.1565,-0.07,-0.03,0.0025,0.029,0.101,-0.023,0.157,0.018
-0.073,0.352,0.426,-0.1395,-0.2495,0.3885,-0.1545,-0.068,-0.0285,0.004,0.032,0.103,-0.0255,0.157,0.0175
-0.0715,0.345,0.417,-0.137,-0.2445,0.3805,-0.152,-0.066,-0.028,0.003,0.0335,0.104,-0.024,0.1495,0.0165
-0.0605,0.291,0.352,-0.1155,-0.2065,0.3215,-0.1605,-0.072,-0.033,-0.0025,0.027,0.099,-0.0205,0.13,0.0195
-0.0345,0.2885,0.3235,-0.127,-0.179,0.306,-0.1865,-0.093,-0.056,-0.023,0.006,0.0785,-0.021,0.146,0.019
-0.0235,0.274,0.298,-0.1255,-0.1605,0.2855,-0.189,-0.096,-0.06,-0.027,0.0025,0.074,-0.0235,0.1405,0.016
-0.016,0.209,0.2255,-0.097,-0.1205,0.217,-0.1775,-0.0845,-0.0485,-0.0125,0.0135,0.0855,-0.026,0.097,0.017
-0.013,0.211,0.2245,-0.099,-0.119,0.2175,-0.1885,-0.103,-0.068,-0.028,-0.004,0.0695,-0.0275,0.1035,0.0195
-0.036,0.219,0.255,-0.0915,-0.1455,0.237,-0.198,-0.119,-0.0855,-0.0415,-0.017,0.0535,-0.027,0.1165,0.0185
-0.041,0.2325,0.274,-0.096,-0.1575,0.253,-0.193,-0.1205,-0.087,-0.0435,-0.019,0.052,-0.0265,0.12,0.0195
-0.0205,0.2705,0.2915,-0.1255,-0.156,0.281,-0.181,-0.116,-0.081,-0.0375,-0.014,0.057,-0.0295,0.1345,0.02
-0.01,0.2885,0.299,-0.1395,-0.1545,0.2935,-0.1635,-0.099,-0.0645,-0.0195,0.003,0.0735,-0.03,0.1365,0.0205
-0.0085,0.287,0.296,-0.1395,-0.1525,0.291,-0.1535,-0.0925,-0.057,-0.013,0.0105,0.0815,-0.0265,0.1215,0.0245
0.0135,0.279,0.266,-0.1465,-0.1265,0.2725,-0.1655,-0.1025,-0.0655,-0.0215,0.003,0.0725,-0.028,0.115,0.0225
0.0245,0.2865,0.2625,-0.156,-0.119,0.274,-0.175,-0.11,-0.073,-0.031,-0.0035,0.065,-0.0255,0.1165,0.024
0.0215,0.308,0.2875,-0.165,-0.133,0.2975,-0.155,-0.09,-0.0535,-0.012,0.0165,0.0855,-0.022,0.1135,0.0295
0.0385,0.3365,0.2985,-0.1875,-0.13,0.317,-0.151,-0.085,-0.048,-0.0075,0.021,0.092,-0.0235,0.125,0.031
0.013,0.3145,0.302,-0.164,-0.1445,0.308,-0.152,-0.082,-0.046,-0.0035,0.0255,0.096,-0.0215,0.115,0.03
-0.029,0.286,0.315,-0.1285,-0.172,0.3,-0.1435,-0.071,-0.0355,0.0055,0.036,0.1055,-0.0195,0.1105,0.0285
-0.046,0.2955,0.342,-0.125,-0.194,0.3185,-0.149,-0.082,-0.045,-0.0055,0.0235,0.094,-0.0195,0.135,0.0285
-0.035,0.3325,0.368,-0.149,-0.2015,0.35,-0.156,-0.0905,-0.055,-0.015,0.0135,0.0855,-0.02,0.1515,0.0315
0.021,0.3565,0.3355,-0.189,-0.1575,0.346,-0.165,-0.102,-0.067,-0.0275,0.001,0.0735,-0.021,0.1575,0.029
0.0475,0.3395,0.292,-0.1935,-0.1225,0.3155,-0.1645,-0.0975,-0.0645,-0.021,0.0055,0.0795,-0.0185,0.1445,0.0275
0.039,0.3275,0.289,-0.1835,-0.125,0.308,-0.162,-0.087,-0.056,-0.009,0.018,0.0935,-0.0145,0.13,0.031
0.021,0.293,0.2725,-0.157,-0.1255,0.2825,-0.1565,-0.074,-0.044,0.003,0.031,0.1035,-0.014,0.117,0.025
-0.018,0.2825,0.3015,-0.1325,-0.16,0.2915,-0.1495,-0.0625,-0.0335,0.014,0.0395,0.1105,-0.019,0.121,0.021
-0.0455,0.3015,0.3475,-0.128,-0.1965,0.3245,-0.1475,-0.0615,-0.033,0.016,0.04,0.1125,-0.02,0.1295,0.0205
-0.051,0.2965,0.348,-0.123,-0.1995,0.322,-0.139,-0.0505,-0.0255,0.025,0.0485,0.1195,-0.022,0.1205,0.0185
-0.017,0.3075,0.325,-0.1455,-0.171,0.316,-0.1645,-0.0745,-0.051,0.0015,0.023,0.092,-0.025,0.1295,0.0175
-0.0005,0.2915,0.293,-0.146,-0.1465,0.292,-0.1915,-0.1005,-0.0745,-0.0225,-0.002,0.0675,-0.025,0.132,0.0145
-0.0485,0.24,0.2885,-0.096,-0.1685,0.264,-0.1935,-0.1,-0.072,-0.0215,-0.002,0.065,-0.0265,0.119,0.0145
-0.064,0.228,0.292,-0.0825,-0.178,0.2595,-0.2005,-0.1115,-0.081,-0.031,-0.0105,0.057,-0.025,0.118,0.0175
-0.0615,0.2135,0.2755,-0.076,-0.1685,0.244,-0.204,-0.1195,-0.0865,-0.037,-0.0135,0.055,-0.0205,0.1135,0.0205
-0.0775,0.2075,0.2855,-0.0655,-0.1815,0.2465,-0.21,-0.123,-0.0885,-0.042,-0.02,0.0515,-0.0205,0.125,0.0175
-0.0175,0.268,0.2855,-0.1255,-0.1515,0.2765,-0.1985,-0.113,-0.079,-0.036,-0.0125,0.0615,-0.02,0.1285,0.015
0.049,0.315,0.2665,-0.182,-0.109,0.2905,-0.1765,-0.099,-0.063,-0.021,0.0045,0.0745,-0.0185,0.1185,0.0185
0.061,0.323,0.262,-0.192,-0.1005,0.292,-0.156,-0.0925,-0.055,-0.0155,0.013,0.0815,-0.0185,0.118,0.0205
0.063,0.3155,0.253,-0.1895,-0.095,0.284,-0.1465,-0.087,-0.0505,-0.0125,0.0145,0.086,-0.0155,0.1145,0.025
0.024,0.3065,0.2835,-0.1655,-0.13,0.2945,-0.149,-0.084,-0.048,-0.011,0.0145,0.088,-0.013,0.1225,0.0255
0.0205,0.2905,0.2705,-0.156,-0.125,0.28,-0.1615,-0.0895,-0.0545,-0.019,0.0075,0.0835,-0.0095,0.123,0.0265
0.0575,0.2885,0.2315,-0.1735,-0.087,0.26,-0.197,-0.1145,-0.079,-0.0415,-0.016,0.06,-0.0075,0.13,0.0305
0.0675,0.3275,0.2605,-0.1975,-0.0965,0.2935,-0.2135,-0.1235,-0.0885,-0.0515,-0.027,0.049,-0.009,0.1535,0.0265
0.054,0.3605,0.307,-0.2075,-0.1265,0.3335,-0.2165,-0.122,-0.0865,-0.0485,-0.025,0.051,-0.0055,0.1735,0.0215
0.0115,0.3325,0.321,-0.172,-0.1545,0.3265,-0.2105,-0.1135,-0.0795,-0.0415,-0.018,0.058,-0.004,0.163,0.0215
-0.0055,0.334,0.3395,-0.1645,-0.1725,0.3365,-0.1885,-0.092,-0.0575,-0.0205,0.003,0.079,-0.0055,0.1525,0.018
0.018,0.363,0.3455,-0.1905,-0.164,0.354,-0.181,-0.081,-0.047,-0.0075,0.015,0.089,-0.007,0.1535,0.0145
0.0425,0.3545,0.3125,-0.1985,-0.135,0.333,-0.1895,-0.0885,-0.054,-0.016,0.006,0.079,-0.013,0.1495,0.0165
0.061,0.358,0.2975,-0.2095,-0.118,0.3275,-0.1985,-0.099,-0.064,-0.025,-0.0045,0.066,-0.0185,0.159,0.0145
0.0375,0.3005,0.2635,-0.169,-0.113,0.282,-0.166,-0.0725,-0.039,0.002,0.023,0.0895,-0.019,0.1285,0.011
-0.0115,0.273,0.285,-0.131,-0.148,0.279,-0.1425,-0.0515,-0.0155,0.029,0.0495,0.1145,-0.0145,0.1205,0.0095
-0.019,0.304,0.323,-0.143,-0.171,0.313,-0.162,-0.0645,-0.0275,0.014,0.036,0.103,-0.016,0.1415,0.0125
-0.013,0.3255,0.339,-0.1565,-0.176,0.332,-0.177,-0.08,-0.0435,-0.001,0.021,0.0885,-0.0195,0.1445,0.0175
-0.029,0.325,0.3545,-0.148,-0.1915,0.3395,-0.185,-0.092,-0.0545,-0.006,0.0145,0.0815,-0.0205,0.1415,0.0215
-0.044,0.2825,0.327,-0.1195,-0.1855,0.3045,-0.1755,-0.087,-0.0495,-0.0025,0.02,0.0875,-0.024,0.1275,0.0195
-0.0465,0.3015,0.3485,-0.1275,-0.1975,0.3245,-0.173,-0.0975,-0.06,-0.011,0.01,0.08,-0.0245,0.1455,0.0195
-0.037,0.3075,0.345,-0.136,-0.191,0.326,-0.178,-0.113,-0.073,-0.023,-0.0015,0.0695,-0.0215,0.1445,0.028
-0.031,0.248,0.2795,-0.1085,-0.1555,0.2635,-0.1515,-0.0875,-0.0485,0.0005,0.0225,0.0925,-0.0175,0.109,0.0285
-0.0195,0.2225,0.242,-0.1015,-0.131,0.232,-0.142,-0.0835,-0.045,0.0045,0.027,0.098,-0.0175,0.095,0.0305
0.019,0.2375,0.2185,-0.1285,-0.0995,0.2275,-0.155,-0.0985,-0.059,-0.0115,0.0135,0.084,-0.019,0.0925,0.031
0.027,0.272,0.2455,-0.1495,-0.1095,0.2585,-0.159,-0.0965,-0.058,-0.0105,0.0145,0.0825,-0.021,0.1015,0.0295
-0.0045,0.3075,0.312,-0.1515,-0.158,0.3095,-0.1685,-0.1,-0.061,-0.0145,0.0115,0.0805,-0.015,0.129,0.0345
-0.002,0.325,0.328,-0.1615,-0.165,0.326,-0.18,-0.106,-0.065,-0.02,0.0045,0.075,-0.0105,0.151,0.03
0.027,0.3155,0.289,-0.1715,-0.131,0.302,-0.185,-0.1085,-0.0675,-0.026,-0.0015,0.067,-0.011,0.149,0.024
0.019,0.2855,0.267,-0.1525,-0.124,0.276,-0.182,-0.1035,-0.063,-0.023,0.0025,0.071,-0.008,0.138,0.028
0.0085,0.291,0.283,-0.15,-0.137,0.2865,-0.1835,-0.1035,-0.0605,-0.0185,0.0055,0.075,-0.007,0.14,0.0285
-0.0015,0.287,0.289,-0.1435,-0.145,0.2875,-0.182,-0.103,-0.0605,-0.02,0.005,0.076,-0.0075,0.1375,0.0245
-0.0255,0.2785,0.3045,-0.127,-0.165,0.2915,-0.1765,-0.0975,-0.058,-0.0165,0.0075,0.0785,-0.0085,0.1425,0.021
-0.024,0.3095,0.3345,-0.143,-0.1795,0.3215,-0.1845,-0.107,-0.07,-0.0265,-0.0035,0.0655,-0.01,0.1585,0.0175
-0.0285,0.306,0.3355,-0.139,-0.182,0.3205,-0.1825,-0.1065,-0.0715,-0.027,-0.0065,0.064,-0.0135,0.149,0.0155
-0.0195,0.2925,0.313,-0.1365,-0.1665,0.3025,-0.171,-0.0895,-0.054,-0.009,0.012,0.0795,-0.0135,0.1265,0.014
0.008,0.324,0.3165,-0.166,-0.1545,0.32,-0.1795,-0.0945,-0.059,-0.0135,0.008,0.0745,-0.014,0.1365,0.0155
0.0035,0.3065,0.3035,-0.155,-0.15,0.3045,-0.1815,-0.0985,-0.062,-0.0155,0.0035,0.072,-0.0145,0.1395,0.0175
-0.0375,0.25,0.288,-0.1065,-0.1625,0.2685,-0.183,-0.096,-0.0575,-0.011,0.0095,0.078,-0.014,0.121,0.0215
-0.0495,0.261,0.311,-0.106,-0.1805,0.286,-0.192,-0.0985,-0.0595,-0.0125,0.0075,0.077,-0.0175,0.1305,0.019
-0.0185,0.3085,0.327,-0.145,-0.173,0.3175,-0.178,-0.0895,-0.05,-0.004,0.018,0.084,-0.02,0.139,0.0195
-0.0115,0.333,0.345,-0.161,-0.178,0.3385,-0.1695,-0.087,-0.048,-0.003,0.0195,0.087,-0.0175,0.141,0.023
-0.0065,0.3145,0.3215,-0.1545,-0.164,0.318,-0.173,-0.0885,-0.0505,-0.006,0.0175,0.0845,-0.019,0.1335,0.0215
-0.005,0.317,0.323,-0.1565,-0.164,0.3195,-0.1775,-0.0895,-0.05,-0.0095,0.0165,0.082,-0.0215,0.139,0.0225
-0.0165,0.3295,0.3465,-0.1565,-0.1815,0.3375,-0.1905,-0.102,-0.0645,-0.02,0.003,0.071,-0.02,0.1555,0.0225
-0.0305,0.315,0.346,-0.1425,-0.1885,0.33,-0.1915,-0.1085,-0.072,-0.0265,0.0,0.0675,-0.0195,0.1565,0.0215
-0.044,0.28,0.325,-0.118,-0.1845,0.3025,-0.1805,-0.1,-0.0635,-0.0185,0.01,0.0775,-0.019,0.135,0.024
-0.05,0.249,0.3,-0.0995,-0.175,0.274,-0.1745,-0.095,-0.057,-0.012,0.0155,0.0835,-0.0195,0.117,0.0255
-0.054,0.2535,0.308,-0.1,-0.181,0.2805,-0.1745,-0.099,-0.0595,-0.018,0.01,0.08,-0.0195,0.125,0.0265
-0.065,0.2555,0.321,-0.0955,-0.193,0.288,-0.1775,-0.1045,-0.067,-0.0255,0.004,0.073,-0.0175,0.1265,0.03
-0.065,0.263,0.3285,-0.0995,-0.1965,0.2955,-0.1805,-0.113,-0.0745,-0.033,-0.003,0.0665,-0.0155,0.1325,0.0305
-0.0075,0.292,0.3,-0.1425,-0.154,0.2955,-0.1795,-0.1145,-0.076,-0.0345,-0.0065,0.0655,-0.018,0.138,0.027
0.008,0.319,0.3115,-0.164,-0.152,0.315,-0.1645,-0.0975,-0.0585,-0.017,0.011,0.082,-0.019,0.14,0.0265
-0.035,0.3055,0.3405,-0.1355,-0.188,0.323,-0.1535,-0.085,-0.045,-0.004,0.024,0.095,-0.017,0.133,0.0255
-0.048,0.2655,0.314,-0.109,-0.181,0.2895,-0.157,-0.0865,-0.047,-0.0065,0.021,0.0915,-0.0165,0.1175,0.023
-0.0515,0.276,0.3285,-0.1125,-0.19,0.302,-0.1705,-0.097,-0.0585,-0.0195,0.0085,0.0785,-0.017,0.128,0.021
-0.03,0.3115,0.342,-0.141,-0.186,0.3265,-0.1825,-0.106,-0.07,-0.031,-0.003,0.0665,-0.017,0.1445,0.019
-0.009,0.321,0.3305,-0.1565,-0.17,0.3255,-0.186,-0.107,-0.071,-0.0325,-0.003,0.066,-0.0145,0.145,0.021
-0.001,0.3345,0.336,-0.167,-0.1685,0.335,-0.1775,-0.098,-0.06,-0.021,0.0095,0.078,-0.011,0.1425,0.024
0.02,0.347,0.328,-0.1835,-0.154,0.337,-0.1595,-0.085,-0.0465,-0.0095,0.0215,0.0905,-0.008,0.1495,0.018
0.0125,0.3285,0.3165,-0.1705,-0.152,0.3225,-0.163,-0.093,-0.054,-0.0185,0.013,0.082,-0.0065,0.153,0.015
0.0255,0.327,0.3015,-0.1765,-0.138,0.314,-0.1695,-0.098,-0.0585,-0.023,0.009,0.0785,-0.0065,0.1495,0.02
0.0455,0.37,0.325,-0.208,-0.1395,0.347,-0.1665,-0.096,-0.058,-0.023,0.009,0.078,-0.0075,0.16,0.0185
0.0255,0.35,0.325,-0.188,-0.1495,0.337,-0.1575,-0.086,-0.0505,-0.016,0.016,0.0845,-0.0075,0.146,0.0175
0.031,0.3015,0.271,-0.1665,-0.12,0.286,-0.1485,-0.0715,-0.037,-0.0015,0.031,0.101,-0.006,0.1175,0.019
0.0545,0.315,0.261,-0.185,-0.1035,0.2875,-0.1565,-0.075,-0.042,-0.003,0.0305,0.0995,-0.0065,0.1265,0.0165
0.051,0.328,0.2775,-0.19,-0.113,0.3025,-0.165,-0.078,-0.0435,-0.0045,0.029,0.0995,-0.0065,0.136,0.018
0.03,0.3335,0.304,-0.182,-0.137,0.3185,-0.1635,-0.073,-0.037,0.001,0.033,0.1045,-0.0075,0.1345,0.0185
0.038,0.351,0.314,-0.195,-0.138,0.3325,-0.167,-0.075,-0.042,-0.0015,0.0275,0.0995,-0.0095,0.1445,0.014
0.0605,0.3395,0.2795,-0.2,-0.1095,0.309,-0.1735,-0.074,-0.042,0.0,0.028,0.099,-0.0085,0.1335,0.018
0.054,0.327,0.2735,-0.1905,-0.11,0.3,-0.1805,-0.074,-0.041,0.001,0.0295,0.0995,-0.009,0.14,0.018
0.016,0.355,0.3395,-0.1855,-0.162,0.347,-0.1805,-0.073,-0.04,0.003,0.029,0.0995,-0.008,0.167,0.014
-0.0115,0.358,0.3695,-0.1735,-0.1905,0.3635,-0.1715,-0.0615,-0.0295,0.0135,0.0375,0.108,-0.006,0.1565,0.015
0.008,0.3365,0.329,-0.1725,-0.1605,0.3325,-0.1795,-0.071,-0.039,0.0055,0.0305,0.1015,-0.004,0.144,0.015
0.021,0.347,0.326,-0.1845,-0.1525,0.3365,-0.1895,-0.08,-0.0475,0.0,0.0225,0.095,-0.003,0.153,0.015
0.004,0.3805,0.3775,-0.1925,-0.1865,0.379,-0.189,-0.0785,-0.046,0.001,0.0235,0.0955,-0.005,0.1685,0.016
-0.0235,0.323,0.347,-0.15,-0.185,0.3345,-0.1715,-0.0615,-0.03,0.0185,0.042,0.112,-0.0055,0.1325,0.0135
-0.0565,0.222,0.2785,-0.083,-0.1675,0.25,-0.1455,-0.0365,-0.0045,0.044,0.067,0.1375,-0.0055,0.0835,0.0155
-0.0705,0.224,0.295,-0.077,-0.183,0.2595,-0.1535,-0.0545,-0.022,0.027,0.05,0.1225,-0.0045,0.1,0.022
-0.0365,0.274,0.311,-0.119,-0.174,0.292,-0.1815,-0.0935,-0.06,-0.011,0.012,0.0855,-0.005,0.14,0.0205
-0.0345,0.2855,0.3205,-0.126,-0.1775,0.3025,-0.1795,-0.099,-0.0635,-0.016,0.0085,0.082,-0.0035,0.154,0.019
-0.058,0.2675,0.3265,-0.105,-0.192,0.297,-0.158,-0.0795,-0.0465,0.003,0.0295,0.1005,-0.004,0.134,0.0175
-0.048,0.2625,0.311,-0.107,-0.1795,0.2865,-0.1555,-0.0755,-0.0435,0.005,0.032,0.104,-0.0055,0.1255,0.0135
-0.049,0.254,0.3035,-0.1025,-0.1765,0.2785,-0.151,-0.0725,-0.0395,0.008,0.035,0.109,0.0005,0.129,0.0135
-0.0595,0.267,0.3265,-0.104,-0.193,0.2965,-0.161,-0.08,-0.0475,-0.001,0.0265,0.1015,0.0035,0.149,0.016
-0.059,0.3035,0.3635,-0.1225,-0.2115,0.3335,-0.182,-0.096,-0.065,-0.0175,0.0105,0.0865,0.005,0.1835,0.0145
-0.021,0.3425,0.364,-0.161,-0.1925,0.353,-0.1945,-0.1045,-0.0715,-0.0235,0.006,0.0805,0.007,0.1995,0.013
-0.0005,0.354,0.3545,-0.177,-0.1775,0.354,-0.2145,-0.11,-0.077,-0.029,0.0005,0.075,0.006,0.2,0.014
-0.0325,0.3225,0.3555,-0.1455,-0.194,0.339,-0.219,-0.107,-0.0745,-0.026,0.0035,0.0785,0.0065,0.1915,0.011
-0.019,0.3085,0.328,-0.145,-0.1735,0.318,-0.2065,-0.091,-0.056,-0.009,0.019,0.0925,0.008,0.175,0.01
0.0075,0.336,0.3295,-0.172,-0.161,0.3325,-0.1945,-0.0765,-0.04,0.008,0.0335,0.107,0.008,0.1765,0.0065
-0.037,0.353,0.3905,-0.158,-0.214,0.3715,-0.182,-0.0745,-0.036,0.013,0.037,0.11,0.0075,0.196,0.0035
-0.0765,0.3435,0.4205,-0.1335,-0.2485,0.3815,-0.1635,-0.063,-0.025,0.024,0.047,0.119,0.0095,0.196,0.003
-0.0695,0.381,0.451,-0.156,-0.2605,0.416,-0.159,-0.064,-0.027,0.0245,0.047,0.117,0.011,0.2105,0.0035
-0.062,0.3915,0.454,-0.165,-0.258,0.4225,-0.16,-0.0685,-0.0305,0.021,0.043,0.1115,0.011,0.2155,0.0015
-0.0765,0.3335,0.4105,-0.1285,-0.2435,0.3715,-0.1515,-0.0595,-0.0225,0.031,0.051,0.1205,0.014,0.188,-0.003
-0.095,0.3055,0.401,-0.1055,-0.248,0.353,-0.151,-0.062,-0.026,0.0265,0.0455,0.116,0.0145,0.187,-0.007
-0.096,0.291,0.3875,-0.098,-0.2415,0.339,-0.1535,-0.0685,-0.032,0.0165,0.037,0.107,0.0115,0.197,-0.0075
-0.106,0.2495,0.356,-0.072,-0.231,0.3025,-0.1595,-0.071,-0.036,0.0135,0.0345,0.1045,0.014,0.1825,-0.006
-0.0765,0.2465,0.3235,-0.0855,-0.2,0.2845,-0.143,-0.053,-0.019,0.0305,0.0515,0.1215,0.0145,0.163,-0.0095
-0.022,0.2995,0.3215,-0.139,-0.172,0.31,-0.119,-0.0315,0.006,0.0545,0.073,0.144,0.016,0.1655,-0.0075
0.0095,0.3635,0.355,-0.1865,-0.1725,0.359,-0.1215,-0.0285,0.0095,0.059,0.077,0.1455,0.02,0.189,-0.0055
0.028,0.4145,0.387,-0.2215,-0.1795,0.4005,-0.1215,-0.027,0.009,0.0615,0.08,0.147,0.02,0.209,-0.0065
0.0225,0.4175,0.3955,-0.2205,-0.1865,0.4065,-0.131,-0.035,-0.0005,0.0525,0.0725,0.141,0.021,0.212,-0.003
-0.011,0.3825,0.3945,-0.186,-0.2025,0.388,-0.139,-0.0415,-0.0075,0.0445,0.065,0.134,0.0215,0.203,0.0005
-0.06,0.376,0.4365,-0.158,-0.2485,0.406,-0.137,-0.0385,-0.005,0.0465,0.0655,0.134,0.021,0.21,-0.0055
-0.075,0.3985,0.4745,-0.162,-0.275,0.436,-0.1505,-0.0455,-0.012,0.0375,0.058,0.125,0.022,0.235,-0.012
-0.066,0.3735,0.4395,-0.154,-0.253,0.406,-0.152,-0.048,-0.0125,0.037,0.055,0.1235,0.021,0.2245,-0.011
-0.0295,0.363,0.393,-0.167,-0.211,0.378,-0.143,-0.0375,-0.003,0.0445,0.0615,0.1305,0.02,0.208,-0.0135
-0.003,0.36,0.363,-0.179,-0.183,0.361,-0.1465,-0.038,-0.005,0.0425,0.0605,0.1295,0.0235,0.1995,-0.012
0.013,0.324,0.3115,-0.1685,-0.149,0.3175,-0.147,-0.037,-0.003,0.0445,0.0625,0.1295,0.0265,0.1785,-0.013
0.0205,0.3155,0.296,-0.168,-0.138,0.3055,-0.142,-0.0325,0.001,0.0485,0.066,0.1315,0.027,0.1745,-0.017
0.0095,0.317,0.308,-0.1635,-0.149,0.312,-0.1435,-0.041,-0.008,0.0425,0.058,0.124,0.026,0.178,-0.016
0.003,0.315,0.3125,-0.1595,-0.155,0.3135,-0.1315,-0.0325,0.002,0.051,0.0655,0.1305,0.026,0.1735,-0.0205
-0.012,0.2985,0.311,-0.1435,-0.1615,0.3045,-0.1185,-0.0145,0.0195,0.071,0.0855,0.1505,0.0285,0.1635,-0.0255
-0.012,0.3,0.312,-0.1445,-0.162,0.306,-0.128,-0.019,0.013,0.067,0.082,0.146,0.031,0.1665,-0.0235
-0.041,0.3145,0.356,-0.137,-0.1985,0.335,-0.134,-0.0215,0.0105,0.062,0.0775,0.1405,0.0325,0.1865,-0.0235
-0.073,0.3045,0.3785,-0.116,-0.226,0.341,-0.128,-0.011,0.0225,0.0745,0.0895,0.152,0.037,0.1845,-0.022
-0.0945,0.2915,0.3865,-0.099,-0.2405,0.339,-0.1225,-0.002,0.0315,0.084,0.1,0.163,0.039,0.171,-0.018
-0.0815,0.3345,0.4165,-0.127,-0.249,0.375,-0.1185,-0.0025,0.033,0.0835,0.1005,0.1635,0.034,0.187,-0.02
-0.0465,0.3745,0.4215,-0.1645,-0.234,0.398,-0.131,-0.0125,0.0235,0.0735,0.093,0.156,0.036,0.192,-0.0165
-0.0495,0.348,0.3985,-0.1495,-0.224,0.373,-0.162,-0.0325,0.005,0.055,0.076,0.1395,0.038,0.1865,-0.011
-0.054,0.336,0.39,-0.1415,-0.222,0.363,-0.1765,-0.04,-0.0015,0.0485,0.07,0.136,0.0435,0.194,-0.0075
-0.072,0.3345,0.4075,-0.1315,-0.24,0.371,-0.174,-0.031,0.006,0.056,0.0775,0.143,0.047,0.194,-0.0045
-0.069,0.321,0.3905,-0.126,-0.2295,0.3555,-0.186,-0.0375,0.0015,0.049,0.069,0.133,0.0435,0.1895,-0.004
-0.083,0.304,0.3875,-0.1105,-0.235,0.3455,-0.196,-0.041,-0.0045,0.046,0.0665,0.132,0.0455,0.1855,-0.0025
-0.0915,0.316,0.408,-0.1125,-0.2495,0.362,-0.199,-0.042,-0.0035,0.0495,0.071,0.136,0.049,0.1915,-0.004
-0.0545,0.362,0.417,-0.154,-0.236,0.3895,-0.21,-0.051,-0.011,0.042,0.065,0.1285,0.052,0.2065,-0.0015
-0.019,0.399,0.418,-0.19,-0.2185,0.4085,-0.217,-0.0625,-0.0225,0.031,0.055,0.1185,0.0515,0.2205,0.003
0.007,0.3895,0.383,-0.1985,-0.188,0.386,-0.212,-0.0615,-0.019,0.036,0.0615,0.124,0.056,0.205,0.009
-0.001,0.3715,0.373,-0.1855,-0.187,0.372,-0.2015,-0.059,-0.017,0.041,0.0665,0.129,0.0585,0.1925,0.012
-0.0155,0.373,0.389,-0.179,-0.202,0.3805,-0.1915,-0.0685,-0.0245,0.0355,0.06,0.124,0.055,0.192,0.012
-0.039,0.324,0.3635,-0.1425,-0.2015,0.3435,-0.174,-0.063,-0.019,0.0435,0.0695,0.133,0.057,0.162,0.014
-0.0555,0.2725,0.3285,-0.109,-0.192,0.3005,-0.169,-0.0505,-0.0055,0.057,0.082,0.144,0.058,0.1395,0.011
-0.044,0.2585,0.3035,-0.1075,-0.174,0.2805,-0.1745,-0.0425,0.0025,0.065,0.0885,0.1495,0.058,0.134,0.008
-0.073,0.24,0.3135,-0.084,-0.193,0.2765,-0.1605,-0.027,0.016,0.074,0.099,0.1625,0.0565,0.1215,0.006
-0.0925,0.266,0.359,-0.087,-0.226,0.3125,-0.153,-0.0185,0.0235,0.082,0.105,0.1685,0.056,0.1345,0.0035
-0.057,0.295,0.3525,-0.119,-0.205,0.3235,-0.1605,-0.023,0.0185,0.0805,0.1035,0.166,0.058,0.1335,0.0065
-0.055,0.2895,0.3445,-0.1175,-0.2,0.3165,-0.1695,-0.031,0.0115,0.075,0.097,0.16,0.058,0.1205,0.0115
-0.056,0.2875,0.344,-0.116,-0.2,0.3155,-0.179,-0.0455,-0.0025,0.061,0.0835,0.1455,0.053,0.1355,0.0105
-0.067,0.269,0.3365,-0.1015,-0.2015,0.3025,-0.195,-0.0605,-0.016,0.0425,0.07,0.1335,0.049,0.141,0.0125
-0.096,0.2515,0.3475,-0.078,-0.222,0.2995,-0.2055,-0.0685,-0.022,0.0355,0.065,0.129,0.052,0.137,0.02
-0.0995,0.2385,0.3385,-0.0695,-0.219,0.288,-0.1995,-0.067,-0.0205,0.0395,0.069,0.131,0.0555,0.125,0.022
-0.109,0.2415,0.351,-0.0665,-0.23,0.296,-0.2065,-0.0725,-0.0265,0.031,0.063,0.1245,0.055,0.1315,0.025
-0.1175,0.25,0.368,-0.0665,-0.2425,0.3085,-0.215,-0.0785,-0.0335,0.022,0.0555,0.1205,0.0565,0.142,0.029
-0.1185,0.263,0.382,-0.0725,-0.25,0.322,-0.211,-0.0745,-0.0315,0.025,0.06,0.1265,0.06,0.1485,0.032
-0.112,0.267,0.3795,-0.078,-0.2455,0.323,-0.2065,-0.068,-0.026,0.0305,0.068,0.1325,0.063,0.1495,0.033
-0.1085,0.2255,0.3345,-0.0585,-0.2215,0.28,-0.1975,-0.0595,-0.0175,0.039,0.074,0.1395,0.0635,0.1265,0.035
-0.1035,0.205,0.309,-0.051,-0.206,0.257,-0.2005,-0.0635,-0.0215,0.0365,0.069,0.1345,0.064,0.1105,0.0385
-0.0875,0.239,0.3275,-0.076,-0.2075,0.283,-0.2055,-0.07,-0.0285,0.03,0.064,0.132,0.0645,0.107,0.0415
-0.08,0.275,0.3555,-0.0975,-0.2175,0.315,-0.2085,-0.081,-0.038,0.02,0.0545,0.123,0.059,0.1135,0.0435
-0.077,0.2965,0.374,-0.11,-0.2255,0.335,-0.2085,-0.0845,-0.0435,0.0135,0.048,0.1145,0.054,0.1245,0.039
-0.0665,0.286,0.353,-0.1095,-0.21,0.319,-0.209,-0.0825,-0.0435,0.012,0.048,0.113,0.054,0.1195,0.0395
-0.0715,0.2985,0.37,-0.1135,-0.221,0.334,-0.224,-0.0975,-0.058,-0.001,0.0335,0.096,0.053,0.137,0.0395
-0.0805,0.3355,0.4165,-0.1275,-0.2485,0.376,-0.233,-0.1055,-0.0685,-0.0105,0.0245,0.085,0.05,0.16,0.0355
-0.0635,0.299,0.3625,-0.118,-0.213,0.3305,-0.2295,-0.1025,-0.067,-0.0095,0.027,0.087,0.0475,0.133,0.034
-0.056,0.227,0.2835,-0.0855,-0.17,0.255,-0.214,-0.089,-0.054,0.0035,0.038,0.0975,0.044,0.094,0.032
-0.06,0.193,0.2535,-0.0665,-0.157,0.223,-0.2035,-0.0805,-0.048,0.011,0.046,0.106,0.0415,0.0715,0.0385
-0.066,0.2405,0.307,-0.087,-0.1865,0.2735,-0.216,-0.0925,-0.0595,0.001,0.035,0.099,0.0435,0.089,0.046
-0.0605,0.242,0.303,-0.091,-0.182,0.2725,-0.2075,-0.0855,-0.0525,0.0075,0.0405,0.1065,0.036,0.0795,0.046
-0.015,0.1915,0.207,-0.0885,-0.111,0.199,-0.1915,-0.074,-0.0415,0.015,0.049,0.1155,0.0315,0.04,0.0475
-0.0005,0.1675,0.1685,-0.084,-0.0845,0.168,-0.1995,-0.078,-0.044,0.01,0.0455,0.111,0.0335,0.0335,0.0535
-0.0495,0.168,0.218,-0.0595,-0.134,0.1925,-0.215,-0.089,-0.0555,-0.002,0.0355,0.101,0.033,0.0575,0.0555
-0.07,0.202,0.273,-0.066,-0.1715,0.2375,-0.23,-0.104,-0.068,-0.0165,0.022,0.0905,0.0315,0.0875,0.0545
-0.039,0.2105,0.2505,-0.086,-0.145,0.2305,-0.2315,-0.1065,-0.0695,-0.0195,0.0215,0.091,0.0275,0.0795,0.057
-0.0415,0.2085,0.2505,-0.0835,-0.146,0.229,-0.233,-0.1145,-0.077,-0.0265,0.0155,0.087,0.0295,0.0835,0.0605
-0.0675,0.226,0.294,-0.0795,-0.1805,0.2595,-0.2335,-0.1195,-0.083,-0.0325,0.011,0.082,0.0325,0.107,0.0565
-0.094,0.247,0.3415,-0.0765,-0.2175,0.294,-0.245,-0.127,-0.0915,-0.0405,0.0025,0.073,0.0315,0.131,0.0495
-0.1065,0.2465,0.354,-0.07,-0.2305,0.3,-0.247,-0.1225,-0.085,-0.0335,0.0075,0.08,0.033,0.134,0.0495
-0.107,0.227,0.334,-0.0605,-0.2205,0.28,-0.2435,-0.1165,-0.079,-0.029,0.013,0.085,0.0335,0.124,0.0525
-0.107,0.2365,0.344,-0.065,-0.2255,0.29,-0.2325,-0.106,-0.0695,-0.02,0.022,0.0925,0.0345,0.1265,0.049
-0.072,0.2785,0.351,-0.1035,-0.2115,0.3145,-0.2175,-0.0905,-0.0565,-0.0065,0.034,0.1055,0.0355,0.129,0.0425
-0.07,0.2705,0.341,-0.1005,-0.2055,0.3055,-0.2245,-0.0935,-0.06,-0.009,0.0305,0.101,0.037,0.1305,0.043
-0.0525,0.2495,0.3025,-0.0985,-0.1775,0.2755,-0.2365,-0.0955,-0.06,-0.009,0.0315,0.0995,0.035,0.12,0.0425
-0.036,0.2395,0.2765,-0.102,-0.1565,0.258,-0.2605,-0.1165,-0.0815,-0.03,0.009,0.0785,0.031,0.119,0.0405
-0.0825,0.225,0.308,-0.0715,-0.1955,0.2665,-0.26,-0.1275,-0.0935,-0.04,-0.0045,0.067,0.0285,0.1215,0.0405
-0.0985,0.2015,0.3005,-0.052,-0.1995,0.251,-0.241,-0.1135,-0.081,-0.026,0.0095,0.079,0.028,0.0965,0.0395
-0.092,0.181,0.274,-0.045,-0.183,0.2275,-0.215,-0.0905,-0.0585,-0.001,0.034,0.1005,0.0285,0.0685,0.038
-0.093,0.1915,0.285,-0.0495,-0.189,0.2375,-0.2,-0.0765,-0.0445,0.0115,0.046,0.1115,0.0275,0.064,0.0395
-0.087,0.2085,0.296,-0.061,-0.1915,0.252,-0.2085,-0.083,-0.0495,0.002,0.0385,0.103,0.0255,0.0705,0.0405
-0.065,0.228,0.2935,-0.0815,-0.179,0.2605,-0.221,-0.0935,-0.0575,-0.007,0.0295,0.093,0.025,0.078,0.041
-0.0435,0.2135,0.2575,-0.085,-0.1505,0.235,-0.2355,-0.1045,-0.067,-0.017,0.02,0.0855,0.0255,0.0705,0.0445
-0.0315,0.1835,0.2155,-0.076,-0.1235,0.1995,-0.2345,-0.106,-0.0685,-0.02,0.0185,0.0855,0.0205,0.0545,0.045
-0.0245,0.195,0.2205,-0.0855,-0.1225,0.2075,-0.2455,-0.119,-0.082,-0.0325,0.0075,0.0735,0.019,0.0645,0.0465
-0.036,0.2215,0.258,-0.093,-0.147,0.239,-0.2555,-0.1325,-0.0935,-0.045,-0.002,0.0635,0.0195,0.0875,0.048
-0.0575,0.2265,0.2845,-0.0845,-0.171,0.255,-0.247,-0.133,-0.0945,-0.044,-0.0025,0.0645,0.0205,0.099,0.0475
-0.066,0.2365,0.303,-0.0855,-0.1845,0.2695,-0.2495,-0.145,-0.108,-0.0575,-0.014,0.053,0.024,0.1135,0.0485
-0.055,0.251,0.3065,-0.0985,-0.181,0.2785,-0.2475,-0.1525,-0.1155,-0.067,-0.0225,0.0455,0.0225,0.125,0.0475
-0.058,0.255,0.3135,-0.099,-0.186,0.284,-0.2335,-0.1445,-0.108,-0.0575,-0.0115,0.055,0.021,0.1205,0.051
-0.08,0.212,0.293,-0.0665,-0.1865,0.252,-0.213,-0.1235,-0.088,-0.038,0.0085,0.0745,0.0225,0.0885,0.0575
-0.0795,0.1775,0.2575,-0.049,-0.1685,0.217,-0.203,-0.115,-0.0795,-0.028,0.0165,0.0835,0.022,0.0555,0.0605
-0.077,0.2075,0.285,-0.0655,-0.181,0.246,-0.2035,-0.119,-0.0845,-0.032,0.0135,0.079,0.02,0.062,0.0575
-0.1105,0.165,0.276,-0.0275,-0.193,0.2205,-0.195,-0.118,-0.085,-0.0315,0.011,0.0785,0.018,0.0505,0.055
-0.142,0.092,0.2345,0.025,-0.1885,0.163,-0.1865,-0.113,-0.0815,-0.027,0.013,0.08,0.015,0.0245,0.055
-0.1145,0.115,0.23,-0.0005,-0.1725,0.1725,-0.1895,-0.109,-0.0775,-0.0225,0.016,0.0815,0.014,0.034,0.05
-0.078,0.1835,0.262,-0.053,-0.17,0.2225,-0.196,-0.11,-0.0775,-0.0225,0.016,0.0815,0.0155,0.0615,0.0485
-0.086,0.2275,0.314,-0.071,-0.2,0.2705,-0.204,-0.1095,-0.076,-0.0235,0.0155,0.0805,0.016,0.09,0.048
-0.077,0.251,0.329,-0.087,-0.203,0.2895,-0.2185,-0.117,-0.0835,-0.029,0.008,0.074,0.014,0.1055,0.045
-0.0615,0.264,0.3255,-0.1015,-0.1935,0.2945,-0.2205,-0.1185,-0.0855,-0.031,0.006,0.071,0.011,0.111,0.04
-0.045,0.2795,0.3255,-0.1175,-0.1855,0.3025,-0.217,-0.1165,-0.083,-0.0295,0.007,0.07,0.008,0.1225,0.0345
-0.012,0.307,0.3195,-0.1475,-0.166,0.313,-0.212,-0.1145,-0.08,-0.028,0.0095,0.0745,0.01,0.127,0.038
-0.033,0.2985,0.332,-0.133,-0.1825,0.315,-0.2215,-0.1245,-0.0905,-0.041,0.0,0.065,0.012,0.1285,0.043
-0.0955,0.2705,0.3665,-0.088,-0.231,0.3185,-0.2385,-0.144,-0.1085,-0.059,-0.0185,0.049,0.011,0.1365,0.0445
-0.1405,0.1805,0.322,-0.02,-0.2315,0.251,-0.2335,-0.142,-0.1085,-0.058,-0.016,0.055,0.011,0.099,0.05
-0.1595,0.105,0.265,0.027,-0.2125,0.185,-0.237,-0.1475,-0.1155,-0.064,-0.022,0.0515,0.01,0.0795,0.0535
-0.1175,0.166,0.284,-0.0245,-0.2005,0.225,-0.24,-0.151,-0.1175,-0.0675,-0.0265,0.0485,0.0065,0.1035,0.055
-0.036,0.252,0.2885,-0.108,-0.162,0.27,-0.2195,-0.1385,-0.1055,-0.056,-0.013,0.0605,0.0005,0.111,0.056
-0.0015,0.314,0.316,-0.1565,-0.1585,0.3145,-0.211,-0.136,-0.104,-0.0535,-0.012,0.061,-0.0045,0.1375,0.046
0.032,0.3435,0.312,-0.188,-0.14,0.3275,-0.2035,-0.135,-0.102,-0.052,-0.012,0.06,-0.009,0.145,0.0395
0.0815,0.348,0.267,-0.215,-0.0925,0.307,-0.175,-0.1115,-0.078,-0.0265,0.0105,0.0815,-0.0095,0.121,0.0375
0.063,0.3225,0.26,-0.193,-0.0985,0.2905,-0.1635,-0.0995,-0.065,-0.0155,0.02,0.0905,-0.0095,0.116,0.031
0.0215,0.2995,0.279,-0.161,-0.129,0.289,-0.1655,-0.1035,-0.0695,-0.021,0.0145,0.0845,-0.012,0.129,0.0275
0.014,0.3085,0.2955,-0.1615,-0.141,0.302,-0.1725,-0.1085,-0.076,-0.0265,0.007,0.0765,-0.011,0.1375,0.026
0.0185,0.314,0.296,-0.1665,-0.1385,0.305,-0.176,-0.1085,-0.077,-0.0275,0.0035,0.073,-0.013,0.1375,0.023
0.0285,0.338,0.31,-0.1835,-0.1405,0.3235,-0.1695,-0.099,-0.067,-0.0185,0.012,0.081,-0.0135,0.1405,0.022
0.035,0.32,0.2855,-0.1775,-0.1255,0.3025,-0.1675,-0.0915,-0.0595,-0.0135,0.0155,0.084,-0.012,0.1345,0.02
0.045,0.3025,0.258,-0.174,-0.1065,0.2805,-0.167,-0.092,-0.0625,-0.0145,0.0125,0.081,-0.0125,0.1285,0.0165
0.044,0.305,0.261,-0.1745,-0.1085,0.283,-0.1745,-0.099,-0.07,-0.0215,0.0075,0.0725,-0.013,0.1275,0.0165
0.0305,0.293,0.263,-0.162,-0.1165,0.278,-0.1745,-0.101,-0.072,-0.025,0.005,0.07,-0.0135,0.135,0.016
0.018,0.2975,0.2795,-0.158,-0.131,0.2885,-0.1755,-0.1045,-0.077,-0.0295,0.0015,0.066,-0.0145,0.144,0.012
0.0125,0.2805,0.2685,-0.1465,-0.128,0.274,-0.1835,-0.1065,-0.0785,-0.033,-0.0025,0.0635,-0.0125,0.138,0.0115
0.009,0.28,0.2715,-0.1445,-0.1315,0.2755,-0.165,-0.0895,-0.0605,-0.017,0.0125,0.079,-0.013,0.1305,0.013
-0.0155,0.292,0.308,-0.1385,-0.1615,0.3,-0.1485,-0.0725,-0.043,0.0005,0.033,0.099,-0.0135,0.13,0.0135
-0.023,0.317,0.3405,-0.1475,-0.1815,0.3285,-0.1565,-0.0805,-0.0515,-0.007,0.0255,0.093,-0.013,0.1505,0.0135
-0.008,0.3505,0.3595,-0.1715,-0.1835,0.355,-0.1655,-0.0815,-0.0545,-0.011,0.0225,0.0895,-0.0135,0.162,0.014
0.011,0.381,0.3705,-0.1965,-0.18,0.3755,-0.189,-0.088,-0.061,-0.019,0.0185,0.083,-0.0125,0.1675,0.016
0.0225,0.391,0.3685,-0.207,-0.173,0.3795,-0.206,-0.1,-0.0715,-0.0305,0.006,0.0695,-0.0135,0.18,0.0155
0.022,0.3525,0.331,-0.1875,-0.1545,0.3415,-0.205,-0.096,-0.0675,-0.027,0.008,0.0735,-0.0155,0.1745,0.013
0.024,0.338,0.315,-0.1815,-0.1455,0.3265,-0.2095,-0.0995,-0.0715,-0.03,0.0045,0.0695,-0.0185,0.1795,0.0105
0.0135,0.2795,0.2665,-0.1465,-0.1265,0.2725,-0.2045,-0.1,-0.071,-0.028,0.006,0.072,-0.0155,0.156,0.017
0.005,0.2395,0.235,-0.1225,-0.115,0.237,-0.181,-0.089,-0.06,-0.015,0.018,0.0865,-0.0145,0.1165,0.02
-0.012,0.301,0.3135,-0.1445,-0.1625,0.307,-0.1585,-0.082,-0.053,-0.0065,0.0255,0.0935,-0.016,0.135,0.018
-0.0555,0.3045,0.36,-0.1245,-0.208,0.332,-0.1475,-0.082,-0.051,-0.003,0.031,0.0965,-0.016,0.1445,0.023
-0.0895,0.2875,0.3775,-0.0995,-0.2335,0.3325,-0.142,-0.0915,-0.061,-0.0115,0.0225,0.0875,-0.0185,0.152,0.024
-0.091,0.293,0.3845,-0.101,-0.2375,0.3385,-0.1325,-0.094,-0.064,-0.014,0.019,0.085,-0.0175,0.1605,0.022
-0.038,0.2945,0.333,-0.1285,-0.1855,0.3135,-0.1145,-0.078,-0.0465,0.002,0.0365,0.099,-0.0195,0.1395,0.0205
0.003,0.333,0.3305,-0.1685,-0.1635,0.3315,-0.114,-0.0785,-0.0475,0.0015,0.0335,0.096,-0.023,0.1425,0.0195
-0.0005,0.365,0.3655,-0.1825,-0.183,0.365,-0.1365,-0.089,-0.059,-0.009,0.0205,0.0835,-0.0225,0.154,0.021
-0.013,0.3405,0.354,-0.164,-0.1835,0.347,-0.16,-0.098,-0.068,-0.0185,0.011,0.0735,-0.0215,0.1535,0.021
0.034,0.338,0.3045,-0.1865,-0.135,0.321,-0.175,-0.109,-0.078,-0.0295,0.0005,0.0625,-0.0215,0.153,0.019
0.0865,0.349,0.2625,-0.218,-0.088,0.3055,-0.176,-0.1065,-0.0765,-0.0285,0.0035,0.0645,-0.0225,0.1475,0.021
0.0425,0.2905,0.2485,-0.1665,-0.103,0.269,-0.1675,-0.096,-0.0665,-0.019,0.0135,0.076,-0.02,0.1255,0.0255
0.0215,0.291,0.27,-0.1565,-0.124,0.2805,-0.1675,-0.094,-0.062,-0.0145,0.019,0.0815,-0.0175,0.129,0.0245
0.0235,0.3485,0.3255,-0.1865,-0.151,0.337,-0.169,-0.0935,-0.062,-0.0145,0.0215,0.0835,-0.017,0.1615,0.024
0.0335,0.388,0.3545,-0.211,-0.1605,0.371,-0.1585,-0.0845,-0.054,-0.0065,0.028,0.092,-0.014,0.178,0.0235
0.036,0.385,0.3495,-0.2105,-0.157,0.367,-0.1445,-0.073,-0.042,0.0055,0.0415,0.1035,-0.0135,0.1675,0.0225
0.013,0.3385,0.326,-0.176,-0.1565,0.332,-0.1375,-0.0635,-0.0325,0.0135,0.0515,0.112,-0.0145,0.142,0.0245
0.032,0.3445,0.313,-0.1885,-0.1405,0.3285,-0.1375,-0.064,-0.033,0.0125,0.0485,0.1095,-0.0175,0.1435,0.02
0.051,0.3665,0.316,-0.209,-0.1325,0.341,-0.14,-0.072,-0.041,0.0055,0.0415,0.1015,-0.022,0.158,0.0145
0.029,0.3495,0.321,-0.1895,-0.146,0.335,-0.1375,-0.074,-0.0435,0.005,0.042,0.1015,-0.022,0.152,0.0205
0.006,0.357,0.3515,-0.182,-0.1725,0.354,-0.149,-0.088,-0.057,-0.0075,0.0285,0.091,-0.0215,0.168,0.022
0.01,0.366,0.356,-0.188,-0.173,0.3605,-0.1555,-0.0965,-0.0655,-0.0155,0.0195,0.08,-0.023,0.174,0.0165
0.0225,0.329,0.307,-0.176,-0.1425,0.318,-0.1475,-0.0925,-0.06,-0.009,0.0245,0.084,-0.025,0.142,0.018
0.0355,0.303,0.268,-0.1695,-0.1165,0.285,-0.147,-0.0945,-0.0615,-0.01,0.0225,0.082,-0.028,0.134,0.018
0.0275,0.314,0.287,-0.171,-0.13,0.3005,-0.143,-0.0945,-0.063,-0.012,0.0185,0.076,-0.0265,0.1595,0.012
0.0245,0.327,0.3025,-0.176,-0.139,0.3145,-0.1515,-0.1065,-0.076,-0.023,0.005,0.0645,-0.0265,0.1725,0.012
0.0365,0.33,0.294,-0.1835,-0.1285,0.3115,-0.1575,-0.105,-0.075,-0.022,0.008,0.0645,-0.029,0.1615,0.0095
0.037,0.348,0.3115,-0.1925,-0.1375,0.3295,-0.1595,-0.101,-0.0695,-0.0165,0.013,0.07,-0.029,0.1575,0.01
0.0415,0.347,0.306,-0.1945,-0.1325,0.3265,-0.165,-0.0995,-0.0665,-0.014,0.0135,0.0715,-0.0275,0.147,0.012
0.0665,0.339,0.273,-0.203,-0.103,0.306,-0.1705,-0.0955,-0.063,-0.012,0.013,0.071,-0.029,0.1425,0.005
0.061,0.355,0.2945,-0.2085,-0.1165,0.3245,-0.184,-0.1035,-0.073,-0.023,0.0025,0.061,-0.0285,0.1605,0.0055
0.0395,0.417,0.378,-0.2285,-0.169,0.3975,-0.182,-0.099,-0.0695,-0.0205,0.0055,0.063,-0.0255,0.188,0.007
0.082,0.427,0.346,-0.255,-0.132,0.3865,-0.1655,-0.0845,-0.054,-0.007,0.02,0.0795,-0.0255,0.1755,0.006
0.094,0.3615,0.268,-0.228,-0.087,0.3145,-0.171,-0.0895,-0.061,-0.014,0.0155,0.074,-0.027,0.154,0.008
0.072,0.339,0.2675,-0.2055,-0.098,0.303,-0.1885,-0.11,-0.0795,-0.034,-0.004,0.055,-0.028,0.1705,0.007
0.0655,0.338,0.2725,-0.202,-0.1035,0.305,-0.1735,-0.099,-0.068,-0.024,0.007,0.068,-0.0255,0.168,0.0085
0.0245,0.3205,0.2965,-0.173,-0.136,0.3085,-0.159,-0.0885,-0.0575,-0.011,0.021,0.081,-0.023,0.15,0.0135
0.0175,0.286,0.269,-0.152,-0.126,0.277,-0.163,-0.0935,-0.0615,-0.0135,0.0185,0.079,-0.023,0.1305,0.0165
0.0395,0.279,0.24,-0.1595,-0.1005,0.259,-0.1535,-0.0875,-0.056,-0.006,0.026,0.0855,-0.0215,0.1285,0.011
0.0125,0.284,0.2725,-0.1485,-0.13,0.278,-0.1455,-0.087,-0.0565,-0.006,0.0265,0.0855,-0.021,0.133,0.015
-0.0055,0.2965,0.303,-0.146,-0.154,0.2995,-0.145,-0.088,-0.058,-0.011,0.0205,0.082,-0.0235,0.138,0.0205
-0.019,0.3085,0.3285,-0.145,-0.174,0.3185,-0.1445,-0.088,-0.057,-0.009,0.0215,0.082,-0.025,0.15,0.0165
-0.0205,0.2935,0.3145,-0.1365,-0.1675,0.304,-0.1555,-0.1005,-0.0675,-0.017,0.013,0.075,-0.0245,0.15,0.017
0.014,0.2825,0.2695,-0.1485,-0.1275,0.2755,-0.1695,-0.1115,-0.078,-0.028,0.0005,0.0615,-0.0255,0.141,0.014
0.0125,0.28,0.268,-0.1465,-0.128,0.274,-0.179,-0.1135,-0.0825,-0.0315,-0.005,0.0565,-0.024,0.144,0.014
-0.004,0.2835,0.288,-0.14,-0.146,0.2855,-0.18,-0.117,-0.086,-0.0325,-0.0055,0.056,-0.0245,0.147,0.015
-0.0055,0.2895,0.2955,-0.142,-0.1505,0.292,-0.173,-0.1125,-0.082,-0.0285,-0.0005,0.0585,-0.0265,0.145,0.0115
-0.0285,0.309,0.3385,-0.1405,-0.1835,0.3235,-0.161,-0.101,-0.071,-0.017,0.012,0.0715,-0.023,0.152,0.012
-0.017,0.3235,0.341,-0.1535,-0.179,0.332,-0.155,-0.095,-0.0645,-0.0115,0.018,0.077,-0.023,0.1485,0.0145
0.047,0.3505,0.304,-0.199,-0.1285,0.327,-0.1475,-0.0885,-0.0595,-0.0085,0.0235,0.0805,-0.026,0.153,0.0095
0.062,0.367,0.306,-0.2145,-0.122,0.336,-0.1405,-0.087,-0.0595,-0.008,0.0235,0.082,-0.0235,0.155,0.008
0.0515,0.3195,0.2685,-0.1855,-0.1085,0.294,-0.132,-0.0825,-0.053,-0.005,0.0275,0.0875,-0.023,0.131,0.0135
0.0375,0.282,0.245,-0.16,-0.104,0.2635,-0.1305,-0.0855,-0.056,-0.0075,0.028,0.0875,-0.0235,0.1295,0.013
0.002,0.2875,0.286,-0.145,-0.142,0.2865,-0.14,-0.1,-0.0705,-0.0215,0.012,0.074,-0.0245,0.1495,0.0135
-0.032,0.282,0.3145,-0.1255,-0.173,0.298,-0.1335,-0.0915,-0.0595,-0.0125,0.0205,0.0835,-0.0235,0.1475,0.0145
-0.061,0.276,0.338,-0.108,-0.1995,0.3065,-0.1395,-0.09,-0.0575,-0.0105,0.023,0.086,-0.0205,0.143,0.015
-0.033,0.3055,0.339,-0.1365,-0.186,0.322,-0.14,-0.0905,-0.057,-0.011,0.0215,0.087,-0.02,0.1415,0.017
0.0225,0.3045,0.2825,-0.164,-0.13,0.2935,-0.139,-0.0875,-0.0545,-0.0095,0.024,0.089,-0.0215,0.1275,0.018
0.0635,0.2805,0.2175,-0.172,-0.077,0.249,-0.148,-0.0925,-0.06,-0.016,0.0175,0.0835,-0.0225,0.1185,0.0125
0.0835,0.261,0.178,-0.1725,-0.047,0.2195,-0.149,-0.084,-0.053,-0.007,0.025,0.092,-0.0195,0.103,0.0135
0.0815,0.286,0.2045,-0.184,-0.0615,0.245,-0.168,-0.0955,-0.065,-0.0185,0.013,0.0775,-0.018,0.1225,0.016
0.084,0.334,0.25,-0.2095,-0.083,0.2915,-0.1825,-0.1135,-0.084,-0.038,-0.0075,0.058,-0.0185,0.154,0.0135
0.0825,0.3385,0.257,-0.2105,-0.0875,0.2975,-0.182,-0.1165,-0.0875,-0.042,-0.0105,0.055,-0.017,0.159,0.0145
0.0645,0.3495,0.2855,-0.207,-0.1105,0.317,-0.171,-0.112,-0.0815,-0.0365,-0.005,0.058,-0.0175,0.169,0.0115
0.0515,0.3525,0.3015,-0.2025,-0.125,0.327,-0.151,-0.094,-0.062,-0.019,0.013,0.0745,-0.0195,0.155,0.0105
0.0765,0.348,0.272,-0.2125,-0.098,0.31,-0.15,-0.093,-0.0615,-0.0205,0.0135,0.075,-0.02,0.1425,0.01
0.067,0.3255,0.259,-0.1965,-0.096,0.292,-0.1565,-0.103,-0.074,-0.0325,0.002,0.0625,-0.0195,0.144,0.0105
0.006,0.286,0.281,-0.1465,-0.1375,0.2835,-0.159,-0.1075,-0.08,-0.036,-0.0015,0.059,-0.0185,0.141,0.011
-0.0335,0.282,0.316,-0.1245,-0.175,0.299,-0.149,-0.0995,-0.069,-0.0265,0.0065,0.069,-0.022,0.143,0.011
-0.0475,0.3135,0.3615,-0.133,-0.2045,0.337,-0.1295,-0.079,-0.047,-0.006,0.0255,0.0885,-0.026,0.148,0.009
-0.051,0.351,0.4025,-0.15,-0.227,0.3765,-0.128,-0.0755,-0.0445,-0.0015,0.0295,0.091,-0.0235,0.1555,0.0055
-0.0425,0.3815,0.4245,-0.17,-0.2335,0.403,-0.1395,-0.089,-0.0585,-0.0135,0.016,0.079,-0.0205,0.1765,0.008
-0.019,0.3915,0.411,-0.1865,-0.215,0.401,-0.1485,-0.0965,-0.0635,-0.02,0.0085,0.0745,-0.0195,0.1955,0.0055
0.0015,0.3635,0.3625,-0.183,-0.1805,0.363,-0.1545,-0.0955,-0.0615,-0.0185,0.01,0.0765,-0.0205,0.176,0.0065
-0.0145,0.2965,0.311,-0.1415,-0.1625,0.3035,-0.155,-0.094,-0.0605,-0.0165,0.012,0.081,-0.0195,0.141,0.01
-0.0405,0.254,0.2945,-0.107,-0.1675,0.274,-0.161,-0.0955,-0.062,-0.018,0.0115,0.0805,-0.0185,0.13,0.0105
-0.0395,0.2715,0.3115,-0.1165,-0.1755,0.291,-0.174,-0.101,-0.068,-0.023,0.0055,0.0755,-0.016,0.1425,0.01
-0.0205,0.2835,0.3045,-0.1315,-0.1625,0.294,-0.1655,-0.091,-0.0585,-0.0165,0.0125,0.083,-0.0185,0.142,0.0065
-0.0035,0.3005,0.305,-0.149,-0.1545,0.3025,-0.155,-0.079,-0.049,-0.0065,0.0225,0.0895,-0.023,0.1425,0.0025
0.0,0.305,0.3055,-0.153,-0.1525,0.305,-0.151,-0.074,-0.046,0.0,0.027,0.0955,-0.02,0.143,0.0035
-0.002,0.298,0.3005,-0.1485,-0.1515,0.299,-0.1565,-0.08,-0.0515,-0.005,0.021,0.09,-0.0215,0.136,0.007
-0.013,0.3115,0.325,-0.1495,-0.169,0.318,-0.1645,-0.0905,-0.0605,-0.013,0.013,0.0815,-0.0215,0.144,0.0065
-0.032,0.3335,0.3655,-0.151,-0.1985,0.3495,-0.152,-0.0745,-0.0465,0.002,0.027,0.095,-0.021,0.1485,0.01
-0.027,0.3525,0.38,-0.163,-0.2035,0.366,-0.153,-0.071,-0.042,0.006,0.029,0.098,-0.0195,0.154,0.006
0.0185,0.3565,0.3385,-0.1875,-0.16,0.3475,-0.169,-0.0875,-0.058,-0.0105,0.0155,0.0825,-0.016,0.1545,0.003
0.0215,0.3225,0.301,-0.1725,-0.14,0.3115,-0.1805,-0.0935,-0.0655,-0.017,0.008,0.075,-0.016,0.147,0.0045
0.0445,0.3335,0.29,-0.1895,-0.123,0.3115,-0.17,-0.081,-0.051,-0.0015,0.0215,0.0905,-0.017,0.139,0.002
0.067,0.3835,0.317,-0.2255,-0.125,0.35,-0.17,-0.0825,-0.053,-0.004,0.0215,0.0885,-0.019,0.1565,0.004
-0.028,0.3135,0.3415,-0.143,-0.1845,0.327,-0.201,-0.1125,-0.082,-0.033,-0.009,0.058,-0.017,0.169,0.007
-0.062,0.254,0.316,-0.0965,-0.189,0.2845,-0.204,-0.1245,-0.094,-0.044,-0.0205,0.047,-0.0205,0.1565,0.0075
-0.0225,0.243,0.266,-0.1105,-0.144,0.2545,-0.1715,-0.1035,-0.0735,-0.0245,0.0,0.0675,-0.024,0.128,0.009
-0.002,0.2375,0.24,-0.118,-0.121,0.2385,-0.1455,-0.09,-0.0575,-0.0085,0.0165,0.084,-0.0215,0.106,0.014
0.019,0.2855,0.267,-0.1525,-0.124,0.276,-0.146,-0.1055,-0.0715,-0.024,0.002,0.0705,-0.0225,0.133,0.015
0.0175,0.304,0.2875,-0.161,-0.135,0.2955,-0.1475,-0.117,-0.0825,-0.034,-0.0065,0.0625,-0.0215,0.148,0.0155
-0.0205,0.249,0.2695,-0.1145,-0.145,0.259,-0.145,-0.116,-0.0825,-0.034,-0.005,0.064,-0.0185,0.1285,0.016
-0.0465,0.2645,0.3115,-0.109,-0.179,0.2875,-0.167,-0.1315,-0.0985,-0.051,-0.023,0.047,-0.019,0.155,0.0145
-0.0205,0.3285,0.349,-0.154,-0.1845,0.3385,-0.1845,-0.1375,-0.1055,-0.0575,-0.0295,0.0405,-0.019,0.1855,0.0155
0.0105,0.322,0.3115,-0.1665,-0.1505,0.3165,-0.174,-0.115,-0.083,-0.0365,-0.009,0.0605,-0.019,0.161,0.0145
0.0475,0.358,0.311,-0.203,-0.132,0.3345,-0.1675,-0.1025,-0.0725,-0.025,0.002,0.0715,-0.019,0.164,0.013
0.0885,0.412,0.324,-0.2505,-0.1175,0.3675,-0.165,-0.1,-0.072,-0.022,0.003,0.0735,-0.0185,0.1825,0.0125
0.1075,0.431,0.324,-0.2695,-0.1085,0.3775,-0.157,-0.0915,-0.063,-0.0115,0.012,0.0815,-0.0175,0.175,0.0105
0.098,0.4095,0.312,-0.254,-0.107,0.3605,-0.1445,-0.077,-0.0485,0.003,0.0265,0.096,-0.016,0.1565,0.0095
0.0605,0.361,0.301,-0.211,-0.1205,0.331,-0.1345,-0.0615,-0.035,0.0165,0.0385,0.1065,-0.0175,0.134,0.008
0.0485,0.376,0.328,-0.2125,-0.14,0.3515,-0.1395,-0.065,-0.036,0.0155,0.0375,0.105,-0.019,0.1445,0.0075
0.0295,0.361,0.332,-0.1955,-0.151,0.346,-0.146,-0.071,-0.041,0.0105,0.0325,0.1025,-0.019,0.148,0.0085
0.0175,0.3055,0.2885,-0.162,-0.1355,0.297,-0.1495,-0.0795,-0.05,0.0005,0.023,0.092,-0.0225,0.1295,0.007
0.04,0.2955,0.2555,-0.168,-0.108,0.2755,-0.1515,-0.092,-0.061,-0.0095,0.0125,0.0825,-0.0235,0.1285,0.0075
0.0185,0.305,0.2875,-0.162,-0.1345,0.296,-0.1545,-0.098,-0.066,-0.015,0.0075,0.079,-0.0195,0.137,0.01
-0.013,0.304,0.318,-0.146,-0.1655,0.3105,-0.161,-0.104,-0.0725,-0.0225,0.0005,0.0705,-0.018,0.136,0.0105
0.016,0.3175,0.302,-0.167,-0.143,0.3095,-0.17,-0.108,-0.0755,-0.0265,-0.004,0.0655,-0.0185,0.14,0.0075
0.068,0.3505,0.2825,-0.2095,-0.1075,0.3165,-0.19,-0.1235,-0.0905,-0.0425,-0.02,0.051,-0.0165,0.16,0.009
0.063,0.3295,0.267,-0.1965,-0.102,0.298,-0.1815,-0.121,-0.088,-0.0375,-0.014,0.0555,-0.0135,0.1485,0.01
0.0685,0.3375,0.269,-0.203,-0.1005,0.303,-0.1595,-0.1035,-0.0695,-0.0195,0.005,0.074,-0.014,0.1385,0.008
0.0735,0.3635,0.2905,-0.219,-0.1085,0.327,-0.1565,-0.099,-0.0655,-0.0175,0.0045,0.0745,-0.0135,0.1455,0.0085
0.0245,0.3655,0.342,-0.1955,-0.1585,0.3535,-0.1555,-0.0905,-0.0585,-0.012,0.0105,0.0805,-0.0095,0.1535,0.0065
-0.014,0.3485,0.363,-0.1675,-0.1885,0.3555,-0.1455,-0.0775,-0.045,0.0,0.0225,0.095,-0.0085,0.151,0.0035
-0.03,0.3005,0.331,-0.1355,-0.1805,0.3155,-0.1235,-0.0555,-0.023,0.0215,0.043,0.1155,-0.0085,0.122,0.0025
-0.015,0.302,0.3175,-0.144,-0.166,0.3095,-0.1335,-0.061,-0.027,0.0165,0.0385,0.112,-0.011,0.1275,-0.0005
-0.0435,0.3195,0.3635,-0.138,-0.2035,0.341,-0.1565,-0.0795,-0.0445,-0.0015,0.0225,0.094,-0.0175,0.1535,-0.0005
-0.09,0.311,0.4015,-0.111,-0.2455,0.356,-0.1555,-0.0785,-0.0415,0.001,0.0255,0.0975,-0.0195,0.1555,0.004
-0.09,0.2755,0.366,-0.093,-0.228,0.3205,-0.159,-0.086,-0.0495,-0.0055,0.019,0.0935,-0.0185,0.1475,0.0085
-0.067,0.2505,0.318,-0.092,-0.1925,0.284,-0.171,-0.112,-0.077,-0.031,-0.006,0.0675,-0.0185,0.152,0.011
-0.0245,0.2715,0.296,-0.124,-0.16,0.2835,-0.1625,-0.1235,-0.086,-0.04,-0.0155,0.0585,-0.023,0.1495,0.013
-0.008,0.2915,0.3,-0.142,-0.154,0.2955,-0.1365,-0.1075,-0.0705,-0.0235,0.0005,0.073,-0.025,0.134,0.0135
-0.0225,0.2895,0.3125,-0.134,-0.1675,0.301,-0.1295,-0.101,-0.065,-0.017,0.0065,0.077,-0.0255,0.1335,0.01
-0.0445,0.272,0.317,-0.114,-0.181,0.294,-0.121,-0.09,-0.0535,-0.0055,0.0155,0.0865,-0.0265,0.1265,0.007
-0.0245,0.281,0.306,-0.1285,-0.165,0.2935,-0.1215,-0.0845,-0.0495,-0.0025,0.02,0.0895,-0.024,0.128,0.0055
0.0225,0.3165,0.2945,-0.17,-0.136,0.3055,-0.151,-0.108,-0.075,-0.0265,-0.004,0.065,-0.023,0.148,0.0075
0.057,0.3165,0.26,-0.187,-0.1015,0.288,-0.1505,-0.106,-0.073,-0.023,-0.0035,0.0675,-0.024,0.144,0.0095
0.0755,0.3085,0.2335,-0.1925,-0.0795,0.271,-0.1355,-0.0865,-0.0555,-0.0055,0.016,0.0855,-0.024,0.133,0.006
0.079,0.3265,0.248,-0.2025,-0.0845,0.287,-0.1325,-0.0845,-0.0545,-0.005,0.019,0.0865,-0.0235,0.1305,0.009
0.0695,0.3255,0.2565,-0.1975,-0.0935,0.2905,-0.14,-0.092,-0.061,-0.015,0.011,0.08,-0.022,0.128,0.013
0.0665,0.3345,0.2685,-0.201,-0.101,0.301,-0.1515,-0.1025,-0.072,-0.026,0.001,0.0705,-0.02,0.1355,0.01
0.0705,0.3495,0.28,-0.2105,-0.1045,0.3145,-0.152,-0.1055,-0.0755,-0.029,-0.002,0.0685,-0.0175,0.1445,0.0095
0.0385,0.333,0.295,-0.186,-0.128,0.3135,-0.153,-0.102,-0.0735,-0.0275,-0.002,0.0705,-0.014,0.151,0.008
0.021,0.354,0.333,-0.1875,-0.156,0.3435,-0.1535,-0.097,-0.0695,-0.023,0.0,0.0735,-0.011,0.176,0.003
0.0035,0.3635,0.36,-0.184,-0.1785,0.3615,-0.152,-0.0915,-0.0645,-0.0175,0.0055,0.079,-0.009,0.1885,0.0015
0.0085,0.3445,0.3365,-0.177,-0.164,0.34,-0.137,-0.0805,-0.052,-0.002,0.0185,0.0935,-0.01,0.1625,0.0
0.02,0.328,0.308,-0.174,-0.144,0.318,-0.1245,-0.067,-0.0385,0.012,0.031,0.1045,-0.01,0.136,-0.0015
-0.0005,0.315,0.316,-0.1575,-0.1585,0.315,-0.1245,-0.0645,-0.035,0.0175,0.0355,0.1075,-0.0075,0.1335,0.001
0.0135,0.323,0.31,-0.1685,-0.148,0.316,-0.1335,-0.0705,-0.0405,0.012,0.0265,0.0995,-0.007,0.142,0.0
0.03,0.319,0.289,-0.1745,-0.13,0.304,-0.1475,-0.083,-0.0535,-0.001,0.014,0.086,-0.0075,0.152,-0.0015
0.031,0.2985,0.268,-0.165,-0.1185,0.2835,-0.1405,-0.0795,-0.052,0.0025,0.018,0.0885,-0.0105,0.145,-0.0035
0.017,0.267,0.2505,-0.1425,-0.1165,0.258,-0.138,-0.071,-0.0425,0.0105,0.0255,0.093,-0.0125,0.1215,-0.006
-0.0075,0.2685,0.276,-0.1305,-0.142,0.272,-0.134,-0.0665,-0.037,0.015,0.031,0.0995,-0.014,0.1165,-0.005
-0.0355,0.287,0.323,-0.126,-0.179,0.3045,-0.1285,-0.0565,-0.0275,0.0225,0.04,0.109,-0.016,0.1245,-0.0045
-0.0455,0.294,0.34,-0.1245,-0.193,0.317,-0.1385,-0.0565,-0.0265,0.025,0.041,0.107,-0.0135,0.1375,-0.006
-0.027,0.3095,0.337,-0.1415,-0.182,0.323,-0.142,-0.0595,-0.0285,0.0245,0.0375,0.1045,-0.012,0.1505,-0.005
-0.027,0.318,0.346,-0.146,-0.1865,0.3315,-0.1435,-0.061,-0.031,0.0225,0.0365,0.106,-0.011,0.1505,-0.0005
-0.036,0.308,0.3445,-0.136,-0.1905,0.326,-0.1605,-0.0765,-0.0475,0.007,0.0235,0.092,-0.01,0.1525,-0.0005
-0.0185,0.279,0.2975,-0.1305,-0.158,0.288,-0.175,-0.0885,-0.057,-0.0035,0.0125,0.0815,-0.0115,0.138,0.0025
-0.013,0.2635,0.2775,-0.1255,-0.1455,0.27,-0.163,-0.0805,-0.048,0.006,0.0225,0.093,-0.0115,0.1205,0.0055
-0.04,0.295,0.335,-0.128,-0.1875,0.315,-0.1495,-0.0735,-0.039,0.014,0.032,0.102,-0.011,0.1395,0.005
-0.068,0.2945,0.363,-0.1135,-0.2155,0.3285,-0.1305,-0.061,-0.0265,0.025,0.043,0.115,-0.01,0.1385,0.0085
-0.0735,0.268,0.342,-0.0975,-0.2075,0.3045,-0.12,-0.0555,-0.02,0.032,0.0495,0.1225,-0.0085,0.1215,0.0095
-0.0495,0.279,0.3295,-0.115,-0.1895,0.304,-0.123,-0.0565,-0.0195,0.03,0.048,0.121,-0.006,0.1265,0.007
-0.039,0.2855,0.325,-0.1235,-0.182,0.305,-0.133,-0.063,-0.0295,0.0185,0.038,0.111,-0.004,0.1395,0.0075
-0.025,0.323,0.348,-0.149,-0.1865,0.335,-0.16,-0.0905,-0.058,-0.0095,0.0105,0.082,-0.0085,0.165,0.006
-0.001,0.3855,0.387,-0.1925,-0.194,0.386,-0.176,-0.109,-0.076,-0.0285,-0.009,0.064,-0.013,0.1865,0.005
-0.0075,0.3955,0.4035,-0.1945,-0.2055,0.3995,-0.1775,-0.111,-0.0785,-0.0315,-0.012,0.0605,-0.011,0.1925,0.0065
-0.016,0.339,0.3555,-0.1615,-0.186,0.347,-0.176,-0.1125,-0.08,-0.031,-0.0135,0.059,-0.0105,0.1765,0.0035
-0.0015,0.3055,0.308,-0.152,-0.155,0.3065,-0.1675,-0.1065,-0.0745,-0.024,-0.009,0.0635,-0.0115,0.159,0.0025
0.022,0.3355,0.314,-0.179,-0.146,0.3245,-0.167,-0.1115,-0.079,-0.029,-0.015,0.0565,-0.014,0.1755,0.0025
0.0285,0.3275,0.2995,-0.178,-0.1355,0.313,-0.16,-0.11,-0.077,-0.027,-0.012,0.059,-0.0165,0.1735,0.002
0.0475,0.3115,0.2645,-0.1795,-0.1085,0.2875,-0.1415,-0.0845,-0.052,-0.0005,0.0135,0.0835,-0.014,0.1475,0.0025
0.068,0.3425,0.275,-0.2055,-0.1035,0.3085,-0.145,-0.0775,-0.0445,0.009,0.024,0.093,-0.0135,0.151,0.0035
0.0415,0.379,0.3385,-0.2105,-0.1485,0.3585,-0.156,-0.08,-0.0485,0.0065,0.021,0.089,-0.015,0.171,0.0005
0.0205,0.3855,0.365,-0.2035,-0.172,0.375,-0.1575,-0.082,-0.0495,0.005,0.019,0.0865,-0.0125,0.175,-0.0025
0.0295,0.3785,0.3495,-0.2045,-0.16,0.364,-0.16,-0.0835,-0.051,0.002,0.0175,0.0835,-0.012,0.1735,-0.0035
0.044,0.3895,0.346,-0.217,-0.1515,0.3675,-0.1645,-0.0885,-0.055,-0.004,0.0125,0.0795,-0.013,0.183,-0.007
0.0515,0.389,0.338,-0.2205,-0.1435,0.3635,-0.1735,-0.101,-0.0665,-0.0155,-0.0005,0.0695,-0.013,0.1825,-0.0055
0.029,0.376,0.3475,-0.203,-0.159,0.3615,-0.1655,-0.092,-0.0575,-0.0075,0.007,0.078,-0.011,0.1775,-0.004
-0.0065,0.3355,0.3425,-0.165,-0.1745,0.339,-0.1425,-0.0665,-0.031,0.018,0.034,0.105,-0.007,0.1575,-0.0055
-0.0065,0.299,0.3055,-0.1465,-0.156,0.302,-0.1475,-0.071,-0.0355,0.0135,0.0295,0.1005,-0.0055,0.1475,-0.005
0.024,0.3055,0.282,-0.165,-0.129,0.2935,-0.163,-0.089,-0.053,-0.004,0.0125,0.0835,-0.0035,0.154,-0.003
0.0315,0.335,0.3045,-0.1835,-0.1365,0.3195,-0.16,-0.0865,-0.049,-0.0015,0.017,0.087,-0.002,0.1635,-0.0025
0.006,0.3275,0.322,-0.167,-0.158,0.3245,-0.1505,-0.074,-0.0365,0.0115,0.0305,0.1005,-0.001,0.159,-0.002
-0.018,0.2955,0.314,-0.139,-0.166,0.3045,-0.149,-0.07,-0.0325,0.0165,0.035,0.104,-0.001,0.1455,-0.003
-0.02,0.3155,0.336,-0.148,-0.178,0.3255,-0.1605,-0.0835,-0.045,0.0015,0.019,0.089,-0.004,0.162,-0.006
-0.02,0.343,0.3635,-0.1615,-0.192,0.353,-0.167,-0.0905,-0.052,-0.0025,0.0145,0.082,-0.003,0.177,-0.004
-0.0095,0.3615,0.3715,-0.176,-0.1905,0.3665,-0.1745,-0.096,-0.057,-0.004,0.01,0.0765,-0.0015,0.185,-0.008
0.0105,0.3415,0.3315,-0.1765,-0.1605,0.336,-0.19,-0.1125,-0.075,-0.0245,-0.0105,0.0595,-0.003,0.1845,-0.007
0.0175,0.3145,0.2975,-0.166,-0.14,0.3055,-0.2,-0.1205,-0.0855,-0.0345,-0.0185,0.051,-0.0015,0.185,-0.002
0.026,0.315,0.29,-0.1705,-0.132,0.3025,-0.2075,-0.1235,-0.087,-0.035,-0.019,0.048,-0.001,0.181,-0.005
0.0425,0.337,0.295,-0.19,-0.1265,0.316,-0.187,-0.0995,-0.0655,-0.0115,0.004,0.0705,-0.001,0.1685,-0.0075
0.067,0.392,0.3255,-0.2295,-0.1295,0.3585,-0.1545,-0.065,-0.032,0.023,0.04,0.1045,-0.001,0.171,-0.0095
0.047,0.394,0.348,-0.2205,-0.1505,0.3705,-0.138,-0.0525,-0.019,0.0365,0.052,0.1155,-0.0025,0.171,-0.0095
0.031,0.3745,0.344,-0.203,-0.1565,0.359,-0.129,-0.043,-0.01,0.045,0.0595,0.122,-0.003,0.156,-0.0065
0.062,0.3865,0.325,-0.2245,-0.1315,0.3555,-0.143,-0.0535,-0.0205,0.0325,0.049,0.112,-0.003,0.1595,-0.0035
0.0145,0.3365,0.3225,-0.1755,-0.154,0.329,-0.1575,-0.064,-0.0325,0.022,0.0405,0.106,0.001,0.167,-0.008
-0.07,0.245,0.3155,-0.088,-0.193,0.28,-0.161,-0.058,-0.025,0.028,0.045,0.1085,0.006,0.1445,-0.011
-0.0715,0.237,0.3085,-0.083,-0.19,0.2725,-0.1635,-0.0645,-0.0335,0.0155,0.028,0.089,-0.001,0.131,-0.0085
-0.0445,0.265,0.31,-0.1105,-0.177,0.287,-0.1685,-0.071,-0.0445,0.002,0.014,0.074,-0.0085,0.134,-0.0075
-0.035,0.2885,0.3235,-0.127,-0.179,0.3055,-0.1855,-0.073,-0.049,-0.005,0.0015,0.0565,-0.0105,0.1425,-0.0095
-0.035,0.294,0.329,-0.1295,-0.182,0.311,-0.1845,-0.065,-0.0425,-0.0015,-0.001,0.0455,-0.0105,0.1405,-0.018
-0.0545,0.252,0.3075,-0.099,-0.181,0.2795,-0.1615,-0.0435,-0.019,0.019,0.017,0.054,-0.0015,0.1235,-0.0305
-0.0545,0.221,0.2755,-0.0835,-0.165,0.248,-0.142,-0.0275,-0.0015,0.0395,0.0345,0.0635,0.0075,0.103,-0.0365
-0.0605,0.1945,0.2555,-0.0675,-0.158,0.225,-0.113,0.0075,0.0385,0.0805,0.0695,0.0875,0.0185,0.079,-0.048
-0.0975,0.165,0.263,-0.034,-0.1805,0.2135,-0.081,0.0425,0.0695,0.1085,0.087,0.0925,0.0145,0.058,-0.0575
-0.084,0.1645,0.249,-0.0405,-0.1665,0.2065,-0.062,0.0655,0.092,0.1275,0.1,0.096,0.0155,0.0365,-0.06
-0.0225,0.211,0.234,-0.0945,-0.128,0.222,-0.0535,0.0975,0.13,0.1665,0.128,0.106,0.033,0.0355,-0.077
0.0135,0.2255,0.213,-0.1195,-0.1,0.219,-0.06,0.105,0.1355,0.1715,0.125,0.0895,0.04,0.038,-0.0875
0.016,0.2055,0.1905,-0.111,-0.0875,0.198,-0.059,0.141,0.1865,0.2265,0.1725,0.116,0.0725,0.031,-0.105
-0.028,0.1965,0.2245,-0.0845,-0.126,0.21,-0.048,0.2065,0.275,0.3265,0.2575,0.171,0.1235,0.038,-0.1355
-0.0775,0.1795,0.2575,-0.051,-0.1675,0.218,-0.0355,0.2595,0.3465,0.407,0.325,0.216,0.1645,0.0385,-0.1585
-0.0705,0.162,0.233,-0.046,-0.152,0.1975,-0.0355,0.317,0.4275,0.4995,0.4115,0.2755,0.224,0.027,-0.1845
-0.0595,0.127,0.187,-0.034,-0.1235,0.1565,-0.0415,0.3715,0.504,0.5905,0.4945,0.3335,0.2845,0.012,-0.208
-0.0895,0.137,0.227,-0.024,-0.1585,0.182,-0.048,0.4205,0.5775,0.6805,0.5725,0.3805,0.3365,0.0195,-0.229
-0.1675,0.1345,0.3025,0.0165,-0.235,0.2185,-0.0635,0.4735,0.6535,0.7715,0.6545,0.4315,0.4,0.0335,-0.2525
-0.2275,0.0685,0.2965,0.0795,-0.262,0.182,-0.0615,0.54,0.7415,0.8715,0.744,0.4925,0.46,0.01,-0.2815
-0.2775,-0.0005,0.2775,0.1385,-0.2775,0.138,-0.0485,0.633,0.8555,0.999,0.859,0.572,0.5355,-0.014,-0.318
-0.341,-0.0525,0.289,0.1965,-0.315,0.118,-0.058,0.708,0.957,1.1175,0.966,0.6425,0.617,-0.015,-0.345
-0.4045,-0.0835,0.3215,0.244,-0.363,0.119,-0.084,0.77,1.0495,1.23,1.068,0.714,0.704,0.0,-0.372
-0.482,-0.1565,0.326,0.319,-0.404,0.0845,-0.0955,0.8685,1.1775,1.3745,1.201,0.8075,0.809,-0.011,-0.415
-0.529,-0.218,0.3115,0.373,-0.4205,0.0465,-0.114,0.958,1.2995,1.518,1.3345,0.8985,0.9135,-0.0225,-0.451
-0.5925,-0.236,0.357,0.414,-0.4745,0.06,-0.131,1.0615,1.4365,1.6755,1.4795,1.0035,1.0315,-0.0035,-0.4935
-0.661,-0.256,0.4055,0.4585,-0.5335,0.0745,-0.1385,1.162,1.563,1.813,1.6035,1.0945,1.137,0.009,-0.537
-0.6635,-0.2385,0.4255,0.451,-0.5445,0.093,-0.164,1.224,1.6485,1.905,1.689,1.1555,1.2185,0.055,-0.576
-0.6825,-0.246,0.437,0.464,-0.56,0.095,-0.1875,1.2715,1.7135,1.976,1.754,1.2015,1.2815,0.096,-0.6085
-0.754,-0.2835,0.471,0.5185,-0.612,0.0935,-0.205,1.3,1.758,2.0315,1.8115,1.2505,1.3395,0.096,-0.62
-0.7745,-0.2775,0.4975,0.5255,-0.6355,0.11,-0.2085,1.343,1.8175,2.105,1.8955,1.326,1.4105,0.101,-0.6355
-0.798,-0.2675,0.531,0.5325,-0.664,0.1315,-0.2005,1.383,1.8655,2.1605,1.9585,1.388,1.4595,0.118,-0.6455
-0.874,-0.3075,0.567,0.5905,-0.72,0.1295,-0.2095,1.3795,1.858,2.1515,1.9625,1.408,1.479,0.1155,-0.6335
-0.9595,-0.3755,0.5845,0.667,-0.7715,0.1045,-0.2195,1.34,1.8095,2.104,1.938,1.411,1.476,0.099,-0.6075
-1.0105,-0.3805,0.6305,0.695,-0.82,0.125,-0.241,1.2875,1.7605,2.061,1.915,1.4105,1.479,0.131,-0.59
-0.9775,-0.3565,0.6215,0.667,-0.799,0.1325,-0.282,1.218,1.688,1.9895,1.864,1.387,1.4785,0.164,-0.5715
-0.966,-0.38,0.5865,0.6725,-0.7755,0.103,-0.3375,1.1095,1.5725,1.8805,1.79,1.358,1.4595,0.1735,-0.527
-1.037,-0.4325,0.605,0.7345,-0.8205,0.086,-0.388,1.0015,1.468,1.7875,1.7345,1.348,1.442,0.175,-0.471
-1.1065,-0.415,0.692,0.7605,-0.8985,0.138,-0.417,0.903,1.381,1.716,1.6965,1.353,1.4155,0.202,-0.419
-1.1025,-0.337,0.766,0.7195,-0.9335,0.214,-0.4545,0.7805,1.2605,1.603,1.6165,1.3235,1.364,0.2595,-0.3735
-1.0945,-0.2915,0.8035,0.6925,-0.9485,0.2555,-0.48,0.647,1.11,1.4445,1.482,1.244,1.2675,0.278,-0.3075
-1.0715,-0.2165,0.8555,0.6435,-0.963,0.319,-0.4945,0.4895,0.94,1.273,1.343,1.167,1.1545,0.3055,-0.226
-0.97,-0.138,0.832,0.554,-0.9005,0.347,-0.5205,0.317,0.7455,1.0775,1.1885,1.0805,1.0515,0.3345,-0.1535
-0.8705,-0.0815,0.7895,0.476,-0.8295,0.3535,-0.5505,0.1615,0.5675,0.8945,1.038,0.993,0.952,0.343,-0.082
-0.763,0.0105,0.774,0.376,-0.768,0.392,-0.5885,0.0005,0.3865,0.7055,0.876,0.889,0.843,0.378,-0.013
-0.6615,0.079,0.7415,0.291,-0.701,0.41,-0.604,-0.172,0.179,0.474,0.658,0.7225,0.6895,0.3895,0.055
-0.5785,0.0915,0.6705,0.2435,-0.6245,0.381,-0.573,-0.3025,0.0045,0.262,0.435,0.537,0.505,0.3455,0.116
-0.4555,0.102,0.558,0.1765,-0.5065,0.3295,-0.5105,-0.41,-0.1675,0.033,0.1865,0.33,0.284,0.283,0.1745
-0.3575,0.1425,0.5005,0.1075,-0.429,0.321,-0.4595,-0.541,-0.37,-0.2275,-0.0775,0.123,0.061,0.237,0.2445
-0.2835,0.177,0.461,0.053,-0.372,0.3185,-0.437,-0.674,-0.5605,-0.4515,-0.2975,-0.0465,-0.1125,0.203,0.3135
-0.203,0.1985,0.402,0.002,-0.3025,0.3,-0.431,-0.8135,-0.7495,-0.658,-0.485,-0.187,-0.258,0.17,0.383
-0.127,0.263,0.39,-0.0685,-0.2585,0.3265,-0.4405,-0.943,-0.912,-0.8265,-0.6275,-0.289,-0.365,0.1675,0.441
-0.046,0.312,0.3585,-0.133,-0.2025,0.335,-0.457,-1.062,-1.061,-0.9725,-0.7505,-0.3805,-0.449,0.172,0.4885
0.022,0.3195,0.298,-0.171,-0.138,0.3085,-0.483,-1.1885,-1.2055,-1.1085,-0.8645,-0.466,-0.529,0.1615,0.541
0.0565,0.291,0.2355,-0.174,-0.0895,0.263,-0.509,-1.2835,-1.3015,-1.1925,-0.935,-0.524,-0.5815,0.1215,0.5855
0.0525,0.2345,0.1825,-0.1435,-0.065,0.208,-0.5265,-1.329,-1.3435,-1.221,-0.9535,-0.539,-0.5985,0.0725,0.6175
0.0705,0.2275,0.1575,-0.1495,-0.0435,0.1925,-0.54,-1.315,-1.321,-1.189,-0.927,-0.521,-0.584,0.044,0.6275
0.048,0.1935,0.146,-0.121,-0.049,0.1695,-0.552,-1.2755,-1.2735,-1.1405,-0.891,-0.501,-0.5635,0.0165,0.626
-0.02,0.151,0.171,-0.0655,-0.0955,0.1605,-0.5755,-1.255,-1.2465,-1.1185,-0.8775,-0.5005,-0.5475,0.0185,0.622
-0.0065,0.1935,0.2005,-0.094,-0.1035,0.197,-0.5885,-1.228,-1.2195,-1.0995,-0.874,-0.512,-0.544,0.0365,0.607
0.023,0.191,0.1685,-0.1075,-0.0725,0.1795,-0.5785,-1.18,-1.17,-1.057,-0.848,-0.5,-0.5415,0.0165,0.593
0.027,0.166,0.139,-0.097,-0.056,0.1525,-0.5825,-1.1345,-1.1235,-1.0155,-0.818,-0.487,-0.5205,0.007,0.5745
0.0305,0.1935,0.1635,-0.1125,-0.0665,0.1785,-0.5915,-1.0945,-1.0855,-0.9815,-0.7935,-0.4795,-0.4915,0.0355,0.546
0.0275,0.241,0.214,-0.1345,-0.093,0.227,-0.5625,-1.02,-1.0125,-0.9155,-0.742,-0.4475,-0.4645,0.0735,0.507
0.043,0.294,0.2515,-0.169,-0.104,0.2725,-0.5175,-0.931,-0.9255,-0.8345,-0.678,-0.403,-0.4345,0.116,0.458
0.052,0.2735,0.2215,-0.163,-0.085,0.2475,-0.473,-0.8465,-0.844,-0.7635,-0.618,-0.359,-0.408,0.1075,0.4185
0.031,0.231,0.2005,-0.131,-0.085,0.2155,-0.4335,-0.7685,-0.77,-0.7,-0.566,-0.3215,-0.3835,0.082,0.3885
0.013,0.2325,0.22,-0.123,-0.1035,0.226,-0.416,-0.715,-0.7175,-0.654,-0.528,-0.2945,-0.352,0.095,0.36
0.0125,0.2585,0.2465,-0.1355,-0.117,0.2525,-0.393,-0.655,-0.658,-0.6045,-0.4865,-0.2665,-0.323,0.115,0.3275
0.0265,0.261,0.2345,-0.144,-0.104,0.2475,-0.3645,-0.583,-0.5885,-0.5405,-0.4335,-0.228,-0.2915,0.1145,0.2945
0.0525,0.2805,0.2285,-0.1665,-0.088,0.254,-0.348,-0.5255,-0.529,-0.486,-0.391,-0.196,-0.2665,0.124,0.263
0.0815,0.364,0.2825,-0.223,-0.1005,0.323,-0.34,-0.483,-0.4855,-0.4445,-0.357,-0.1715,-0.2435,0.1755,0.23
0.0785,0.4285,0.3505,-0.254,-0.1355,0.389,-0.321,-0.4355,-0.438,-0.3935,-0.3115,-0.1385,-0.215,0.2235,0.1995
0.065,0.3695,0.305,-0.2175,-0.12,0.337,-0.2695,-0.3625,-0.363,-0.3165,-0.2455,-0.082,-0.194,0.1875,0.1725
0.0455,0.2935,0.2485,-0.1695,-0.1015,0.271,-0.233,-0.312,-0.3125,-0.2705,-0.203,-0.0475,-0.176,0.147,0.153
0.0005,0.322,0.322,-0.1615,-0.1605,0.322,-0.232,-0.2995,-0.2985,-0.258,-0.194,-0.046,-0.16,0.1735,0.14
0.017,0.325,0.309,-0.171,-0.146,0.3165,-0.2195,-0.2735,-0.2705,-0.2305,-0.1735,-0.0295,-0.1465,0.1675,0.129
0.017,0.3075,0.291,-0.1625,-0.137,0.299,-0.196,-0.236,-0.233,-0.195,-0.1445,-0.01,-0.1315,0.151,0.1165
-0.0115,0.3085,0.3205,-0.149,-0.166,0.3145,-0.1735,-0.2005,-0.1985,-0.1645,-0.1215,0.001,-0.124,0.15,0.099
-0.004,0.299,0.3035,-0.1475,-0.1535,0.3005,-0.1595,-0.19,-0.1875,-0.1585,-0.1215,-0.0065,-0.122,0.146,0.0815
-0.019,0.286,0.305,-0.1335,-0.162,0.295,-0.151,-0.184,-0.182,-0.154,-0.1205,-0.013,-0.117,0.141,0.0725
-0.0165,0.315,0.3315,-0.1495,-0.174,0.323,-0.141,-0.1695,-0.166,-0.1415,-0.108,-0.006,-0.1075,0.136,0.0695
-0.013,0.338,0.3515,-0.163,-0.1825,0.3445,-0.1495,-0.169,-0.166,-0.144,-0.112,-0.012,-0.0995,0.151,0.0625
-0.003,0.333,0.336,-0.165,-0.1695,0.334,-0.1705,-0.1785,-0.178,-0.1545,-0.1225,-0.026,-0.092,0.1625,0.0585
0.04,0.3515,0.312,-0.196,-0.136,0.3315,-0.174,-0.1755,-0.175,-0.1535,-0.1225,-0.027,-0.085,0.161,0.052
0.0355,0.3505,0.3155,-0.1935,-0.14,0.333,-0.167,-0.16,-0.1595,-0.14,-0.1115,-0.018,-0.082,0.1585,0.044
0.0415,0.3505,0.3095,-0.196,-0.134,0.33,-0.1545,-0.1475,-0.1475,-0.128,-0.0995,-0.0085,-0.0785,0.1495,0.041
0.072,0.344,0.2725,-0.2085,-0.1,0.308,-0.1435,-0.136,-0.137,-0.118,-0.091,-0.001,-0.0785,0.1355,0.0355
0.0785,0.3405,0.2625,-0.2095,-0.092,0.3015,-0.151,-0.1395,-0.14,-0.1195,-0.0925,-0.003,-0.076,0.143,0.0305
0.089,0.3745,0.286,-0.232,-0.0985,0.33,-0.1575,-0.139,-0.1375,-0.116,-0.0915,-0.001,-0.0695,0.1595,0.03
0.087,0.3755,0.289,-0.2315,-0.101,0.332,-0.151,-0.13,-0.129,-0.108,-0.0835,0.007,-0.067,0.16,0.026
0.1035,0.365,0.262,-0.2345,-0.0795,0.3135,-0.1515,-0.128,-0.126,-0.1045,-0.0805,0.0105,-0.0675,0.1555,0.0205
0.1225,0.3735,0.2515,-0.248,-0.0645,0.3125,-0.1535,-0.122,-0.1185,-0.0975,-0.0745,0.017,-0.07,0.1445,0.0215
0.0925,0.372,0.28,-0.2325,-0.094,0.3255,-0.1585,-0.1255,-0.123,-0.1025,-0.0795,0.011,-0.071,0.151,0.0225
0.0395,0.366,0.327,-0.203,-0.1435,0.346,-0.169,-0.1315,-0.13,-0.1095,-0.0875,0.0015,-0.07,0.175,0.0215
0.017,0.359,0.3425,-0.188,-0.163,0.3505,-0.1585,-0.1205,-0.118,-0.0985,-0.076,0.012,-0.0665,0.1725,0.018
0.0305,0.3655,0.335,-0.1985,-0.152,0.35,-0.141,-0.095,-0.094,-0.0745,-0.053,0.0345,-0.062,0.155,0.014
0.035,0.3655,0.331,-0.2,-0.148,0.348,-0.1325,-0.083,-0.083,-0.0625,-0.043,0.046,-0.059,0.145,0.0175
0.037,0.342,0.306,-0.1895,-0.1345,0.324,-0.132,-0.086,-0.0845,-0.065,-0.045,0.0435,-0.0565,0.135,0.0205
0.025,0.336,0.3115,-0.1805,-0.143,0.3235,-0.1485,-0.1015,-0.1,-0.0835,-0.062,0.0255,-0.0585,0.15,0.0155
0.008,0.3485,0.3415,-0.1785,-0.167,0.345,-0.159,-0.115,-0.113,-0.0975,-0.0775,0.0105,-0.0595,0.172,0.0135
0.02,0.3515,0.3325,-0.186,-0.1565,0.342,-0.1535,-0.1105,-0.1085,-0.092,-0.072,0.017,-0.0585,0.168,0.016
0.0495,0.3655,0.3165,-0.2075,-0.1335,0.3405,-0.15,-0.1105,-0.1065,-0.0905,-0.0685,0.0205,-0.06,0.17,0.018
0.068,0.3765,0.309,-0.2225,-0.1205,0.3425,-0.159,-0.119,-0.1125,-0.096,-0.0735,0.0155,-0.0615,0.172,0.023
0.062,0.386,0.324,-0.224,-0.131,0.3545,-0.164,-0.1255,-0.12,-0.104,-0.0795,0.0095,-0.0625,0.1785,0.027
0.0395,0.392,0.353,-0.216,-0.157,0.372,-0.1515,-0.1245,-0.118,-0.103,-0.0775,0.012,-0.065,0.1885,0.0265
0.026,0.386,0.3605,-0.2065,-0.167,0.373,-0.136,-0.12,-0.113,-0.097,-0.071,0.0195,-0.066,0.1895,0.027
0.0365,0.404,0.3675,-0.2205,-0.1655,0.3855,-0.128,-0.109,-0.102,-0.086,-0.059,0.03,-0.067,0.188,0.0245
0.0445,0.4215,0.3775,-0.233,-0.1665,0.399,-0.129,-0.105,-0.0985,-0.0825,-0.0545,0.033,-0.0675,0.1835,0.0225
0.0455,0.39,0.3445,-0.2185,-0.1495,0.367,-0.13,-0.11,-0.105,-0.0885,-0.062,0.026,-0.068,0.174,0.0255
0.0385,0.3335,0.2955,-0.1865,-0.1285,0.314,-0.131,-0.1125,-0.1095,-0.093,-0.0675,0.0215,-0.068,0.157,0.024
0.0465,0.327,0.281,-0.187,-0.1175,0.304,-0.14,-0.1215,-0.12,-0.102,-0.0795,0.0115,-0.0675,0.157,0.021
0.08,0.3355,0.2555,-0.208,-0.0875,0.295,-0.149,-0.129,-0.1255,-0.1085,-0.088,0.001,-0.0685,0.1555,0.0175
0.0665,0.3215,0.2555,-0.194,-0.0945,0.288,-0.1515,-0.126,-0.123,-0.1065,-0.088,0.002,-0.065,0.147,0.0185
0.045,0.3215,0.2765,-0.1835,-0.116,0.299,-0.155,-0.1215,-0.1205,-0.1025,-0.0855,0.0055,-0.061,0.153,0.017
0.0465,0.3275,0.2815,-0.1875,-0.1175,0.304,-0.1625,-0.125,-0.1235,-0.1055,-0.0875,0.0005,-0.0605,0.1555,0.013
0.0335,0.3285,0.296,-0.1815,-0.131,0.312,-0.1565,-0.1175,-0.115,-0.096,-0.0795,0.009,-0.0585,0.1465,0.0105
0.026,0.327,0.3015,-0.1765,-0.1375,0.3135,-0.133,-0.0915,-0.088,-0.0715,-0.055,0.035,-0.0565,0.1335,0.0115
0.0335,0.3415,0.3085,-0.1875,-0.1375,0.325,-0.1335,-0.089,-0.085,-0.0675,-0.0495,0.0395,-0.0545,0.1475,0.0135
0.053,0.394,0.3415,-0.224,-0.144,0.3675,-0.153,-0.1095,-0.105,-0.0875,-0.07,0.017,-0.058,0.1835,0.0085
0.031,0.3995,0.3685,-0.2155,-0.169,0.3835,-0.1565,-0.1185,-0.1155,-0.102,-0.083,0.0055,-0.0605,0.1925,0.0105
-0.0025,0.3665,0.3695,-0.182,-0.186,0.3675,-0.151,-0.1115,-0.1095,-0.0935,-0.076,0.0135,-0.0595,0.182,0.0145
-0.0105,0.3535,0.3645,-0.172,-0.1875,0.359,-0.143,-0.101,-0.0975,-0.081,-0.0645,0.024,-0.0575,0.17,0.013
-0.0235,0.3435,0.368,-0.1605,-0.1955,0.3555,-0.1325,-0.0905,-0.0875,-0.0715,-0.0535,0.0355,-0.054,0.1605,0.015
-0.0055,0.3635,0.3695,-0.1795,-0.1875,0.366,-0.1255,-0.083,-0.081,-0.066,-0.046,0.0425,-0.0535,0.1605,0.0185
0.0345,0.362,0.328,-0.1985,-0.1465,0.345,-0.126,-0.088,-0.086,-0.0695,-0.0485,0.0395,-0.053,0.1505,0.019
0.0755,0.3745,0.3,-0.225,-0.112,0.337,-0.143,-0.1015,-0.098,-0.0825,-0.061,0.027,-0.0545,0.1615,0.019
0.0745,0.3535,0.2795,-0.2145,-0.1025,0.3165,-0.147,-0.1,-0.096,-0.082,-0.06,0.028,-0.057,0.1615,0.0165
0.024,0.3015,0.278,-0.163,-0.127,0.2895,-0.1475,-0.0945,-0.0925,-0.0755,-0.0535,0.035,-0.0565,0.142,0.016
0.015,0.3485,0.334,-0.182,-0.1595,0.341,-0.156,-0.098,-0.097,-0.0795,-0.0575,0.031,-0.0545,0.1625,0.0185
0.0205,0.3985,0.3785,-0.21,-0.179,0.388,-0.153,-0.091,-0.091,-0.0735,-0.0525,0.035,-0.052,0.1795,0.0155
-0.021,0.4085,0.43,-0.194,-0.2255,0.419,-0.1425,-0.073,-0.0735,-0.0555,-0.035,0.0525,-0.0505,0.179,0.0125
-0.0535,0.3905,0.4445,-0.169,-0.249,0.4175,-0.1395,-0.065,-0.0655,-0.0485,-0.0275,0.0605,-0.05,0.179,0.009
-0.049,0.346,0.3955,-0.1485,-0.2225,0.3705,-0.156,-0.0795,-0.082,-0.0645,-0.044,0.044,-0.0485,0.169,0.0075
-0.0145,0.349,0.364,-0.1675,-0.1895,0.3565,-0.1605,-0.088,-0.0915,-0.074,-0.0555,0.0345,-0.051,0.1665,0.008
0.0325,0.3835,0.3515,-0.2085,-0.1595,0.3675,-0.155,-0.0855,-0.09,-0.0695,-0.0525,0.0355,-0.054,0.1695,0.0075
0.0725,0.41,0.338,-0.2415,-0.1325,0.374,-0.1495,-0.083,-0.087,-0.0635,-0.048,0.0395,-0.0535,0.1685,0.009
0.079,0.415,0.3365,-0.247,-0.129,0.3755,-0.1485,-0.09,-0.092,-0.069,-0.053,0.035,-0.0575,0.1705,0.0125
0.059,0.401,0.3425,-0.23,-0.142,0.3715,-0.1535,-0.1065,-0.1105,-0.0845,-0.071,0.018,-0.062,0.1745,0.016
0.078,0.415,0.3375,-0.2465,-0.1295,0.376,-0.141,-0.1005,-0.1055,-0.0785,-0.0665,0.0235,-0.064,0.171,0.014
0.089,0.418,0.33,-0.2535,-0.1205,0.3735,-0.1275,-0.0885,-0.0905,-0.067,-0.052,0.038,-0.0635,0.1545,0.016
0.0705,0.3885,0.319,-0.2295,-0.124,0.3535,-0.1295,-0.092,-0.091,-0.068,-0.053,0.037,-0.0605,0.1435,0.019
0.05,0.355,0.3055,-0.203,-0.1275,0.33,-0.1245,-0.0885,-0.0865,-0.063,-0.0465,0.0445,-0.061,0.139,0.0185
0.0395,0.358,0.3185,-0.199,-0.1395,0.338,-0.126,-0.0895,-0.0865,-0.065,-0.0475,0.043,-0.058,0.154,0.02
0.0585,0.3585,0.3,-0.2085,-0.121,0.329,-0.149,-0.11,-0.1065,-0.0875,-0.072,0.0185,-0.0565,0.169,0.0195
0.0765,0.372,0.296,-0.2245,-0.11,0.334,-0.174,-0.1325,-0.129,-0.109,-0.095,-0.002,-0.056,0.183,0.0195
0.076,0.3845,0.3095,-0.2305,-0.117,0.347,-0.1815,-0.135,-0.1335,-0.112,-0.097,-0.003,-0.056,0.183,0.022
0.0805,0.386,0.306,-0.2335,-0.113,0.3455,-0.171,-0.124,-0.1235,-0.103,-0.085,0.006,-0.059,0.1735,0.018
0.0725,0.394,0.322,-0.2335,-0.125,0.3575,-0.1625,-0.1145,-0.1135,-0.092,-0.076,0.0145,-0.059,0.1795,0.0135
0.056,0.357,0.302,-0.207,-0.123,0.3295,-0.151,-0.0995,-0.0985,-0.0765,-0.0595,0.0305,-0.057,0.1595,0.016
0.052,0.3545,0.303,-0.2035,-0.1255,0.3285,-0.1475,-0.092,-0.092,-0.071,-0.054,0.0355,-0.059,0.1535,0.015
0.053,0.35,0.298,-0.2015,-0.1225,0.3235,-0.165,-0.102,-0.1025,-0.081,-0.067,0.0225,-0.06,0.1565,0.013
0.0665,0.333,0.267,-0.2,-0.1005,0.3,-0.183,-0.121,-0.1205,-0.1,-0.0855,0.003,-0.0615,0.1585,0.011
0.026,0.3255,0.3005,-0.176,-0.137,0.3125,-0.19,-0.129,-0.1305,-0.1085,-0.0975,-0.0075,-0.0625,0.1685,0.01
-0.0115,0.3,0.3125,-0.1445,-0.162,0.306,-0.1955,-0.1335,-0.135,-0.1145,-0.1,-0.011,-0.0615,0.1695,0.0115
-0.021,0.279,0.3005,-0.129,-0.1605,0.2895,-0.1945,-0.129,-0.1295,-0.11,-0.0945,-0.007,-0.06,0.1615,0.01
-0.044,0.2685,0.313,-0.1125,-0.1785,0.2905,-0.179,-0.1095,-0.1115,-0.0905,-0.076,0.0115,-0.0575,0.1475,0.01
-0.0285,0.2645,0.2935,-0.1185,-0.161,0.279,-0.1675,-0.1035,-0.1065,-0.085,-0.068,0.0195,-0.0565,0.1355,0.013
-0.0005,0.2625,0.264,-0.131,-0.1325,0.263,-0.1625,-0.107,-0.11,-0.087,-0.07,0.018,-0.0555,0.131,0.0165
0.0355,0.304,0.269,-0.17,-0.117,0.2865,-0.1545,-0.109,-0.112,-0.094,-0.0755,0.0135,-0.0585,0.1465,0.0135
0.074,0.363,0.2895,-0.219,-0.1075,0.326,-0.134,-0.092,-0.0935,-0.0775,-0.059,0.03,-0.06,0.1505,0.015
0.111,0.3795,0.269,-0.2455,-0.079,0.324,-0.1105,-0.072,-0.0725,-0.054,-0.034,0.052,-0.0595,0.1355,0.02
0.134,0.3745,0.241,-0.2545,-0.0535,0.3075,-0.1095,-0.0815,-0.08,-0.065,-0.042,0.0465,-0.0615,0.13,0.022
0.1795,0.415,0.236,-0.2975,-0.0285,0.3255,-0.1375,-0.109,-0.109,-0.0945,-0.0705,0.019,-0.061,0.147,0.0255
0.222,0.457,0.2355,-0.3395,-0.007,0.346,-0.159,-0.1235,-0.125,-0.11,-0.084,0.0055,-0.0575,0.166,0.0255
0.166,0.439,0.2735,-0.303,-0.0535,0.356,-0.158,-0.1165,-0.1185,-0.102,-0.076,0.015,-0.052,0.17,0.022
0.083,0.4145,0.332,-0.249,-0.1245,0.373,-0.1615,-0.111,-0.112,-0.096,-0.0715,0.019,-0.048,0.1845,0.018
0.0525,0.3665,0.3145,-0.2095,-0.131,0.3405,-0.1515,-0.096,-0.096,-0.082,-0.058,0.0355,-0.0465,0.1645,0.0115
0.053,0.342,0.2895,-0.198,-0.118,0.3155,-0.14,-0.08,-0.0815,-0.067,-0.0435,0.0495,-0.0465,0.1425,0.01
0.0595,0.3745,0.3155,-0.217,-0.128,0.3445,-0.1465,-0.0825,-0.086,-0.071,-0.0485,0.0445,-0.046,0.157,0.0135
0.1155,0.448,0.3335,-0.282,-0.109,0.3905,-0.1465,-0.0875,-0.091,-0.075,-0.054,0.0385,-0.0525,0.1795,0.014
0.091,0.455,0.3645,-0.273,-0.1365,0.4095,-0.151,-0.0915,-0.0955,-0.0795,-0.0605,0.0305,-0.0565,0.197,0.0135
-0.0045,0.385,0.39,-0.1905,-0.1975,0.387,-0.1665,-0.11,-0.114,-0.097,-0.079,0.012,-0.0565,0.1945,0.009
-0.003,0.383,0.3865,-0.1905,-0.1945,0.3845,-0.175,-0.12,-0.1225,-0.1065,-0.0875,0.0015,-0.06,0.191,0.007
0.037,0.3435,0.307,-0.1905,-0.135,0.325,-0.1445,-0.094,-0.097,-0.081,-0.0625,0.0265,-0.0605,0.1405,0.008
0.069,0.299,0.2305,-0.1845,-0.0805,0.2645,-0.122,-0.073,-0.0775,-0.0595,-0.0415,0.047,-0.06,0.0985,0.008
0.055,0.2775,0.223,-0.1665,-0.084,0.25,-0.132,-0.077,-0.079,-0.0635,-0.046,0.0435,-0.0605,0.104,0.008
0.066,0.301,0.235,-0.184,-0.0845,0.268,-0.1395,-0.083,-0.085,-0.0695,-0.0525,0.036,-0.06,0.128,0.008
0.085,0.3815,0.297,-0.2335,-0.106,0.339,-0.1475,-0.089,-0.0935,-0.078,-0.06,0.027,-0.059,0.165,0.0115
0.0685,0.4,0.3315,-0.2345,-0.1315,0.3655,-0.1445,-0.087,-0.092,-0.078,-0.06,0.0285,-0.0585,0.1685,0.0095
0.083,0.3915,0.309,-0.2375,-0.113,0.35,-0.135,-0.0775,-0.084,-0.0695,-0.05,0.037,-0.054,0.1505,0.0095
0.0905,0.376,0.286,-0.2335,-0.0975,0.331,-0.1365,-0.073,-0.078,-0.065,-0.0465,0.0415,-0.0505,0.143,0.0115
0.087,0.368,0.282,-0.228,-0.0975,0.3245,-0.1415,-0.075,-0.0795,-0.0675,-0.049,0.04,-0.054,0.1395,0.011
0.082,0.3665,0.285,-0.2245,-0.1015,0.3255,-0.151,-0.088,-0.0935,-0.0805,-0.062,0.0275,-0.0555,0.1385,0.015
0.0625,0.3385,0.2765,-0.2005,-0.107,0.307,-0.1665,-0.0995,-0.104,-0.0905,-0.0735,0.017,-0.054,0.1395,0.015
0.059,0.3365,0.278,-0.198,-0.1095,0.307,-0.1715,-0.098,-0.1045,-0.091,-0.0735,0.0175,-0.052,0.143,0.014
0.059,0.354,0.295,-0.2065,-0.118,0.3245,-0.1655,-0.0905,-0.096,-0.084,-0.0665,0.026,-0.0515,0.1455,0.0125
0.044,0.36,0.3165,-0.2025,-0.136,0.338,-0.167,-0.0875,-0.0925,-0.08,-0.0625,0.0275,-0.0525,0.1555,0.0095
0.0295,0.36,0.331,-0.195,-0.1505,0.345,-0.168,-0.0895,-0.096,-0.084,-0.067,0.024,-0.0545,0.1605,0.0105
0.0285,0.3385,0.3105,-0.184,-0.141,0.3245,-0.1655,-0.092,-0.0965,-0.085,-0.068,0.0215,-0.0565,0.1455,0.014
0.077,0.3705,0.294,-0.224,-0.1085,0.332,-0.175,-0.102,-0.1085,-0.095,-0.079,0.0105,-0.0575,0.162,0.0115
0.0745,0.3735,0.2995,-0.2245,-0.112,0.336,-0.1715,-0.0985,-0.104,-0.0925,-0.078,0.0145,-0.0555,0.167,0.0085
0.0485,0.348,0.3,-0.1985,-0.1255,0.3235,-0.1625,-0.085,-0.0895,-0.079,-0.0645,0.026,-0.053,0.148,0.0075
0.0405,0.356,0.316,-0.1985,-0.1375,0.3355,-0.149,-0.0735,-0.0795,-0.07,-0.056,0.034,-0.052,0.143,0.0015
0.023,0.3295,0.3065,-0.1765,-0.1415,0.3175,-0.1305,-0.0665,-0.071,-0.062,-0.05,0.0385,-0.0535,0.128,0.0
0.0235,0.34,0.317,-0.182,-0.1465,0.3285,-0.131,-0.076,-0.0815,-0.068,-0.057,0.0285,-0.0535,0.1415,0.003
0.0315,0.338,0.3075,-0.185,-0.138,0.3225,-0.1265,-0.0725,-0.0795,-0.0625,-0.0525,0.034,-0.053,0.135,0.0025
0.06,0.324,0.2645,-0.1925,-0.102,0.294,-0.1215,-0.064,-0.071,-0.0515,-0.0425,0.0455,-0.052,0.116,0.0045
0.08,0.3615,0.2825,-0.221,-0.1015,0.322,-0.129,-0.0675,-0.0735,-0.056,-0.0465,0.042,-0.049,0.1355,0.0055
0.055,0.366,0.3115,-0.2105,-0.1285,0.3385,-0.146,-0.0765,-0.0835,-0.0675,-0.058,0.0295,-0.051,0.1555,0.001
0.034,0.3635,0.33,-0.199,-0.148,0.3465,-0.156,-0.0845,-0.091,-0.0755,-0.0665,0.021,-0.051,0.169,0.0015
0.065,0.3865,0.322,-0.226,-0.1285,0.354,-0.1575,-0.082,-0.0865,-0.075,-0.0665,0.0225,-0.05,0.169,0.0025
0.094,0.396,0.3025,-0.245,-0.104,0.349,-0.1635,-0.0855,-0.0895,-0.0795,-0.0685,0.02,-0.0495,0.1705,0.001
0.093,0.382,0.2895,-0.2375,-0.0985,0.3355,-0.1565,-0.077,-0.0795,-0.072,-0.0585,0.0305,-0.048,0.154,0.0015
0.057,0.3465,0.29,-0.202,-0.1165,0.318,-0.147,-0.0615,-0.065,-0.0575,-0.0455,0.045,-0.05,0.1385,0.002
0.021,0.322,0.302,-0.1715,-0.1405,0.3115,-0.148,-0.0605,-0.065,-0.0565,-0.044,0.0465,-0.052,0.1405,0.0015
0.0235,0.2965,0.2735,-0.1605,-0.125,0.285,-0.147,-0.058,-0.061,-0.0525,-0.04,0.051,-0.0525,0.125,0.005
0.047,0.308,0.2615,-0.178,-0.1075,0.2845,-0.1515,-0.064,-0.067,-0.058,-0.0455,0.046,-0.0515,0.1285,0.008
0.077,0.351,0.2745,-0.214,-0.099,0.3125,-0.161,-0.0845,-0.087,-0.0775,-0.063,0.0255,-0.053,0.148,0.009
0.0575,0.36,0.303,-0.209,-0.1225,0.331,-0.1445,-0.082,-0.0865,-0.075,-0.0595,0.029,-0.056,0.15,0.012
-0.0145,0.3515,0.3665,-0.1685,-0.1905,0.3585,-0.1115,-0.063,-0.0665,-0.0565,-0.039,0.0485,-0.057,0.1465,0.012
-0.0535,0.3175,0.3715,-0.132,-0.2125,0.344,-0.0945,-0.061,-0.063,-0.0525,-0.035,0.0525,-0.058,0.1365,0.012
-0.046,0.2825,0.3295,-0.1185,-0.188,0.3055,-0.0935,-0.063,-0.0675,-0.057,-0.04,0.0475,-0.058,0.122,0.0115
-0.0265,0.2885,0.3155,-0.131,-0.171,0.3015,-0.0985,-0.0635,-0.069,-0.059,-0.0445,0.043,-0.059,0.1265,0.007
-0.018,0.317,0.3355,-0.15,-0.1765,0.326,-0.0895,-0.0515,-0.058,-0.0475,-0.0345,0.0545,-0.0585,0.1335,0.0045
0.0035,0.3545,0.351,-0.179,-0.1735,0.3525,-0.085,-0.038,-0.0445,-0.0365,-0.0245,0.063,-0.0585,0.1305,0.0065
0.037,0.3755,0.3385,-0.2065,-0.151,0.357,-0.1015,-0.051,-0.0575,-0.0495,-0.039,0.0465,-0.062,0.1365,0.006
0.0305,0.352,0.322,-0.1915,-0.1455,0.3365,-0.12,-0.0685,-0.075,-0.064,-0.0545,0.031,-0.0595,0.1375,0.01
0.022,0.3255,0.3035,-0.174,-0.141,0.3145,-0.1255,-0.07,-0.0755,-0.0635,-0.056,0.0315,-0.058,0.131,0.012
0.0265,0.3175,0.2915,-0.1725,-0.1325,0.304,-0.1285,-0.071,-0.078,-0.067,-0.0595,0.0295,-0.0585,0.1295,0.0075
0.0385,0.3325,0.295,-0.186,-0.128,0.3135,-0.1285,-0.0675,-0.076,-0.066,-0.0585,0.0305,-0.056,0.1345,0.008
0.0615,0.354,0.293,-0.208,-0.1155,0.3235,-0.1225,-0.057,-0.0655,-0.0565,-0.05,0.039,-0.054,0.1365,0.0075
0.062,0.3665,0.305,-0.2145,-0.1215,0.3355,-0.1285,-0.0605,-0.069,-0.061,-0.056,0.033,-0.054,0.1475,0.005
0.0655,0.398,0.333,-0.232,-0.134,0.3655,-0.139,-0.0685,-0.077,-0.07,-0.0635,0.0255,-0.054,0.1665,0.0055
0.0815,0.455,0.374,-0.2685,-0.146,0.414,-0.154,-0.0845,-0.0915,-0.0835,-0.0785,0.0125,-0.0525,0.2055,0.007
0.078,0.4905,0.4125,-0.2845,-0.167,0.4515,-0.156,-0.09,-0.0975,-0.0895,-0.085,0.007,-0.052,0.234,0.0075
0.0555,0.409,0.3545,-0.2325,-0.1495,0.3815,-0.1155,-0.054,-0.061,-0.055,-0.0465,0.0425,-0.05,0.1745,0.0085
0.04,0.3105,0.271,-0.1755,-0.1155,0.2905,-0.0815,-0.025,-0.031,-0.026,-0.0195,0.0685,-0.0535,0.1155,0.008
0.046,0.3045,0.259,-0.1755,-0.1065,0.2815,-0.088,-0.0325,-0.0385,-0.0335,-0.0275,0.0605,-0.0575,0.118,0.0065
0.0355,0.3085,0.274,-0.1725,-0.1195,0.291,-0.1,-0.041,-0.0455,-0.0395,-0.0335,0.0535,-0.0535,0.126,0.0055
0.0285,0.3155,0.2875,-0.172,-0.1295,0.301,-0.1045,-0.0375,-0.0415,-0.037,-0.032,0.053,-0.0515,0.132,0.001
0.0225,0.3305,0.309,-0.177,-0.143,0.3195,-0.124,-0.044,-0.0485,-0.046,-0.042,0.0425,-0.0495,0.1475,-0.002
0.007,0.339,0.3325,-0.1735,-0.163,0.3355,-0.151,-0.0605,-0.066,-0.0615,-0.0605,0.025,-0.048,0.168,-0.002
0.014,0.2985,0.2855,-0.1565,-0.136,0.292,-0.139,-0.0445,-0.051,-0.047,-0.0475,0.037,-0.0505,0.14,-0.006
0.0155,0.2575,0.2425,-0.137,-0.1135,0.25,-0.129,-0.0285,-0.036,-0.031,-0.034,0.0515,-0.052,0.112,-0.009
0.012,0.2585,0.2475,-0.1355,-0.118,0.2525,-0.1375,-0.0295,-0.037,-0.0315,-0.034,0.05,-0.0505,0.11,-0.0045
0.0185,0.2765,0.259,-0.148,-0.12,0.2675,-0.128,-0.02,-0.0265,-0.022,-0.023,0.06,-0.0475,0.11,-0.0025
0.033,0.324,0.291,-0.1785,-0.129,0.307,-0.1255,-0.0185,-0.0255,-0.021,-0.022,0.059,-0.047,0.1255,-0.001
0.0495,0.3395,0.2905,-0.1945,-0.1205,0.3145,-0.1285,-0.0255,-0.032,-0.03,-0.0305,0.051,-0.0475,0.1295,0.0
0.0545,0.344,0.2905,-0.1995,-0.118,0.317,-0.134,-0.038,-0.0435,-0.0435,-0.0415,0.039,-0.0465,0.1435,-0.0025
0.0665,0.3635,0.297,-0.215,-0.1155,0.33,-0.1345,-0.046,-0.0505,-0.051,-0.048,0.0325,-0.048,0.1495,-0.001
0.0725,0.378,0.306,-0.2255,-0.117,0.342,-0.132,-0.045,-0.0475,-0.048,-0.045,0.034,-0.0485,0.1495,0.002
0.043,0.3845,0.342,-0.214,-0.1495,0.363,-0.136,-0.0475,-0.0485,-0.0515,-0.0475,0.03,-0.053,0.1635,0.0015
-0.016,0.3295,0.346,-0.157,-0.181,0.3375,-0.1375,-0.0475,-0.051,-0.057,-0.0515,0.0305,-0.054,0.149,0.004
-0.05,0.2885,0.339,-0.1195,-0.1945,0.3135,-0.1365,-0.0505,-0.0545,-0.057,-0.0505,0.031,-0.05,0.1425,0.007
-0.013,0.3355,0.349,-0.1615,-0.181,0.342,-0.1435,-0.0665,-0.0685,-0.0695,-0.0635,0.0195,-0.0505,0.1685,0.007
0.0115,0.3365,0.326,-0.1745,-0.157,0.331,-0.154,-0.08,-0.083,-0.0835,-0.0775,0.0075,-0.0515,0.17,0.0095
0.018,0.309,0.2915,-0.1635,-0.137,0.3,-0.1505,-0.0725,-0.0785,-0.0765,-0.071,0.0125,-0.0505,0.156,0.008
0.0265,0.3005,0.2745,-0.1635,-0.124,0.287,-0.1455,-0.0625,-0.0685,-0.065,-0.061,0.0195,-0.0475,0.1505,0.0025
0.0475,0.2925,0.2455,-0.17,-0.099,0.2685,-0.15,-0.0625,-0.0705,-0.067,-0.0635,0.0155,-0.0465,0.145,0.0025
0.09,0.3325,0.2435,-0.2115,-0.077,0.2875,-0.1605,-0.071,-0.079,-0.078,-0.077,0.002,-0.047,0.1615,0.001
0.1285,0.326,0.198,-0.2275,-0.035,0.262,-0.157,-0.066,-0.074,-0.073,-0.073,0.004,-0.047,0.1425,-0.0035
0.166,0.3045,0.139,-0.2355,0.0135,0.2215,-0.1415,-0.049,-0.057,-0.056,-0.057,0.021,-0.045,0.105,-0.0035
0.135,0.3025,0.168,-0.219,-0.0165,0.235,-0.1355,-0.043,-0.0505,-0.0505,-0.0525,0.025,-0.045,0.112,-0.0065
0.056,0.306,0.2505,-0.181,-0.0975,0.278,-0.111,-0.022,-0.032,-0.0325,-0.0345,0.0435,-0.0445,0.128,-0.017
0.0375,0.3365,0.2995,-0.187,-0.131,0.3175,-0.088,-0.0005,-0.0085,-0.0115,-0.014,0.0635,-0.043,0.1355,-0.021
0.033,0.323,0.291,-0.1785,-0.129,0.3065,-0.0885,0.009,-0.001,-0.0035,-0.0065,0.071,-0.0425,0.1305,-0.0225
-0.009,0.3075,0.317,-0.1495,-0.163,0.312,-0.093,0.0155,0.004,0.001,-0.0015,0.075,-0.0395,0.1285,-0.022
-0.0045,0.294,0.299,-0.145,-0.1515,0.296,-0.1045,0.0085,-0.0015,-0.007,-0.0095,0.068,-0.035,0.1265,-0.021
0.018,0.2885,0.271,-0.1535,-0.1265,0.2795,-0.1075,0.007,-0.005,-0.0125,-0.013,0.0635,-0.036,0.127,-0.026
0.0155,0.3095,0.2945,-0.1625,-0.1395,0.3015,-0.0985,0.01,-0.0025,-0.01,-0.0115,0.0655,-0.0375,0.132,-0.024
0.024,0.3475,0.324,-0.186,-0.15,0.3355,-0.098,0.0035,-0.0055,-0.0135,-0.015,0.062,-0.0395,0.1405,-0.021
0.027,0.371,0.3445,-0.199,-0.159,0.3575,-0.115,-0.007,-0.0165,-0.025,-0.0245,0.052,-0.0415,0.1545,-0.021
0.0415,0.368,0.327,-0.205,-0.1425,0.347,-0.1265,-0.0135,-0.025,-0.034,-0.034,0.044,-0.0415,0.1505,-0.019
