i,ii,iii,avr,avl,avf,v1,v2,v3,v4,v5,v6,vx,vy,vz
-0.896,-0.94,-0.044,0.9185,-0.426,-0.492,-0.403,-0.324,-0.303,-0.252,-0.1935,-0.328,0.114,0.046,-0.0285
-0.8285,-0.926,-0.097,0.8775,-0.366,-0.5115,-0.4115,-0.334,-0.312,-0.2615,-0.205,-0.3415,0.1135,0.0375,-0.031
-0.736,-0.9285,-0.193,0.8325,-0.2715,-0.5605,-0.445,-0.3675,-0.348,-0.296,-0.239,-0.377,0.1135,0.029,-0.0295
-0.883,-0.934,-0.051,0.9085,-0.4165,-0.4925,-0.3945,-0.3185,-0.299,-0.246,-0.189,-0.3265,0.113,0.018,-0.033
-1.1035,-0.9385,0.165,1.021,-0.6345,-0.3865,-0.3055,-0.233,-0.215,-0.161,-0.105,-0.241,0.1125,0.0075,-0.0355
-1.0835,-0.9545,0.129,1.019,-0.6065,-0.4125,-0.3195,-0.253,-0.2375,-0.18,-0.1235,-0.2575,0.1135,0.006,-0.0325
-1.0045,-0.955,0.0495,0.98,-0.5275,-0.453,-0.354,-0.2885,-0.2735,-0.213,-0.156,-0.287,0.1145,0.008,-0.03
-0.967,-0.9315,0.035,0.9495,-0.501,-0.448,-0.3595,-0.29,-0.276,-0.218,-0.1625,-0.2905,0.1145,0.023,-0.033
-0.947,-0.914,0.033,0.9305,-0.49,-0.4405,-0.366,-0.2895,-0.2765,-0.221,-0.17,-0.295,0.115,0.036,-0.032
-0.9465,-0.9345,0.012,0.941,-0.4795,-0.461,-0.374,-0.291,-0.2755,-0.223,-0.174,-0.3,0.1135,0.0275,-0.029
-0.9295,-0.9535,-0.0245,0.9415,-0.4525,-0.489,-0.388,-0.3045,-0.2885,-0.238,-0.1865,-0.313,0.1105,0.0205,-0.0325
-0.956,-0.956,0.0,0.956,-0.4785,-0.478,-0.39,-0.308,-0.2925,-0.242,-0.191,-0.3175,0.11,0.0345,-0.0305
-0.953,-0.945,0.0075,0.9495,-0.4805,-0.4685,-0.3785,-0.298,-0.283,-0.236,-0.1835,-0.3105,0.111,0.0445,-0.031
-0.929,-0.923,0.0065,0.926,-0.468,-0.4585,-0.3715,-0.294,-0.2805,-0.233,-0.1805,-0.3035,0.1115,0.0505,-0.0355
-0.9755,-0.948,0.028,0.962,-0.502,-0.46,-0.378,-0.302,-0.2925,-0.241,-0.187,-0.31,0.1105,0.0505,-0.0405
-1.015,-0.9805,0.034,0.998,-0.525,-0.4735,-0.384,-0.307,-0.3,-0.2505,-0.1965,-0.322,0.108,0.0485,-0.0395
-0.962,-0.9785,-0.0165,0.9705,-0.473,-0.4975,-0.395,-0.3185,-0.312,-0.2635,-0.212,-0.336,0.11,0.0415,-0.033
-0.9395,-0.9645,-0.025,0.952,-0.4575,-0.4945,-0.39,-0.3155,-0.3075,-0.258,-0.207,-0.329,0.113,0.038,-0.037
-0.9795,-0.955,0.0245,0.9675,-0.502,-0.465,-0.3725,-0.294,-0.2875,-0.235,-0.1855,-0.309,0.111,0.0435,-0.04
-0.98,-0.953,0.0275,0.967,-0.504,-0.463,-0.371,-0.2965,-0.28,-0.2285,-0.179,-0.304,0.1115,0.0385,-0.0335
-0.976,-0.958,0.018,0.967,-0.4975,-0.47,-0.3815,-0.317,-0.294,-0.24,-0.1895,-0.3145,0.1105,0.041,-0.0335
-0.98,-0.972,0.008,0.9765,-0.4945,-0.482,-0.384,-0.3245,-0.3005,-0.244,-0.1955,-0.3215,0.1095,0.0375,-0.036
-0.9665,-0.959,0.0075,0.963,-0.487,-0.476,-0.3675,-0.3095,-0.2815,-0.2265,-0.18,-0.307,0.1085,0.0295,-0.036
-0.981,-0.9485,0.0325,0.965,-0.507,-0.458,-0.3575,-0.294,-0.272,-0.2165,-0.17,-0.298,0.1075,0.023,-0.0385
-0.9895,-0.9435,0.046,0.967,-0.518,-0.449,-0.359,-0.2905,-0.268,-0.2135,-0.166,-0.2945,0.108,0.0195,-0.038
-0.934,-0.9455,-0.0115,0.94,-0.4615,-0.4785,-0.373,-0.3035,-0.282,-0.2275,-0.1805,-0.31,0.1075,0.022,-0.0375
-0.937,-0.9545,-0.0175,0.946,-0.46,-0.486,-0.372,-0.2995,-0.2825,-0.2305,-0.183,-0.314,0.1075,0.02,-0.0365
-0.9785,-0.9555,0.023,0.967,-0.501,-0.466,-0.364,-0.2865,-0.269,-0.2185,-0.17,-0.3035,0.1065,0.019,-0.038
-0.97,-0.9555,0.0145,0.963,-0.4925,-0.47,-0.368,-0.288,-0.275,-0.2245,-0.1755,-0.3085,0.106,0.0235,-0.0425
-0.968,-0.9605,0.0075,0.964,-0.488,-0.4765,-0.369,-0.293,-0.2825,-0.2325,-0.184,-0.3165,0.106,0.0275,-0.039
-0.957,-0.969,-0.0115,0.9635,-0.473,-0.49,-0.376,-0.3005,-0.291,-0.2395,-0.1915,-0.3245,0.104,0.0215,-0.038
-0.9455,-0.956,-0.01,0.951,-0.468,-0.483,-0.384,-0.3065,-0.295,-0.243,-0.192,-0.324,0.1025,0.0265,-0.037
-0.976,-0.977,-0.001,0.977,-0.488,-0.489,-0.3945,-0.3185,-0.3045,-0.2545,-0.2015,-0.333,0.1025,0.032,-0.0335
-0.989,-0.9715,0.017,0.9805,-0.5035,-0.477,-0.3905,-0.316,-0.3055,-0.2535,-0.201,-0.333,0.102,0.0425,-0.032
-0.982,-0.946,0.036,0.964,-0.5095,-0.455,-0.3825,-0.3055,-0.296,-0.245,-0.1935,-0.326,0.104,0.0485,-0.033
-0.967,-0.945,0.0225,0.9565,-0.495,-0.4615,-0.377,-0.304,-0.2955,-0.2465,-0.1955,-0.328,0.104,0.0405,-0.034
-0.97,-0.954,0.016,0.9625,-0.4935,-0.469,-0.378,-0.306,-0.2985,-0.2485,-0.197,-0.3295,0.101,0.041,-0.0305
-0.976,-0.96,0.016,0.968,-0.4965,-0.472,-0.3815,-0.3065,-0.298,-0.249,-0.1975,-0.3305,0.101,0.0455,-0.031
-0.9685,-0.9595,0.009,0.9645,-0.489,-0.4755,-0.375,-0.3005,-0.292,-0.243,-0.191,-0.3265,0.1005,0.0465,-0.035
-0.9805,-0.973,0.0075,0.977,-0.4945,-0.483,-0.378,-0.303,-0.296,-0.244,-0.191,-0.327,0.102,0.0365,-0.032
-0.97,-0.9655,0.005,0.968,-0.488,-0.48,-0.384,-0.315,-0.3095,-0.251,-0.1965,-0.3315,0.102,0.0325,-0.0295
-0.9765,-0.97,0.006,0.9735,-0.4915,-0.482,-0.3855,-0.3165,-0.3125,-0.2525,-0.1985,-0.333,0.1025,0.023,-0.0305
-0.982,-0.9825,-0.0005,0.9825,-0.491,-0.492,-0.388,-0.313,-0.3125,-0.2535,-0.1995,-0.3345,0.1015,0.0155,-0.028
-0.9915,-1.001,-0.01,0.9965,-0.491,-0.5055,-0.3835,-0.314,-0.307,-0.2485,-0.1945,-0.3305,0.1015,0.0085,-0.0275
-0.9795,-0.991,-0.0115,0.9855,-0.4845,-0.5015,-0.373,-0.308,-0.2965,-0.2395,-0.1875,-0.3235,0.102,0.008,-0.0255
-0.941,-0.9415,-0.0005,0.9415,-0.4705,-0.471,-0.358,-0.2925,-0.286,-0.226,-0.1745,-0.31,0.1015,0.0185,-0.026
-0.9655,-0.941,0.0245,0.9535,-0.495,-0.458,-0.3595,-0.293,-0.287,-0.2275,-0.1735,-0.3075,0.1005,0.014,-0.028
-0.9785,-0.9605,0.018,0.97,-0.4985,-0.4715,-0.3715,-0.3005,-0.2965,-0.2375,-0.184,-0.3165,0.1025,0.012,-0.0285
-0.9895,-0.9545,0.035,0.9725,-0.5125,-0.4595,-0.3615,-0.2915,-0.2875,-0.2305,-0.178,-0.3085,0.104,0.0275,-0.0305
-0.965,-0.949,0.016,0.9575,-0.491,-0.4665,-0.369,-0.3005,-0.297,-0.2425,-0.189,-0.3175,0.1015,0.0445,-0.029
-0.985,-0.9845,0.0005,0.985,-0.493,-0.492,-0.383,-0.3145,-0.3115,-0.2595,-0.205,-0.3335,0.0995,0.039,-0.0295
-1.016,-0.996,0.02,1.006,-0.518,-0.488,-0.384,-0.319,-0.312,-0.26,-0.206,-0.3335,0.098,0.04,-0.0325
-0.9985,-0.992,0.0065,0.9955,-0.5025,-0.493,-0.389,-0.329,-0.3225,-0.267,-0.2095,-0.3345,0.1005,0.0325,-0.03
-1.017,-1.009,0.008,1.0135,-0.513,-0.5005,-0.3905,-0.3315,-0.328,-0.2735,-0.215,-0.3385,0.102,0.018,-0.032
-0.94,-0.9425,-0.0025,0.9415,-0.469,-0.4725,-0.3725,-0.3115,-0.308,-0.257,-0.198,-0.323,0.1015,0.03,-0.033
-0.924,-0.9195,0.0045,0.922,-0.4645,-0.4575,-0.361,-0.299,-0.297,-0.2455,-0.186,-0.313,0.1005,0.0365,-0.0265
-0.98,-0.9725,0.0075,0.976,-0.494,-0.4825,-0.378,-0.3175,-0.317,-0.2655,-0.2055,-0.3325,0.099,0.0385,-0.0245
-0.9755,-0.982,-0.0065,0.979,-0.485,-0.4945,-0.388,-0.329,-0.33,-0.2775,-0.217,-0.3435,0.1,0.0465,-0.025
-0.9435,-0.9675,-0.024,0.956,-0.46,-0.496,-0.3865,-0.3265,-0.3285,-0.274,-0.2125,-0.337,0.101,0.044,-0.0245
-0.911,-0.9585,-0.048,0.935,-0.432,-0.503,-0.385,-0.3245,-0.3255,-0.2705,-0.21,-0.333,0.1025,0.03,-0.0245
-0.871,-0.9475,-0.0765,0.91,-0.3975,-0.512,-0.4055,-0.3435,-0.3475,-0.289,-0.228,-0.351,0.1015,0.0395,-0.0205
-0.907,-0.963,-0.056,0.935,-0.4255,-0.5095,-0.408,-0.344,-0.3485,-0.2865,-0.225,-0.3475,0.0985,0.041,-0.011
-0.988,-0.979,0.009,0.9835,-0.4985,-0.485,-0.3675,-0.2985,-0.298,-0.239,-0.179,-0.304,0.0985,0.015,-0.016
-0.948,-0.9485,-0.0005,0.9485,-0.474,-0.4745,-0.355,-0.2855,-0.285,-0.2255,-0.166,-0.2925,0.098,0.008,-0.02
-0.912,-0.962,-0.0495,0.937,-0.4315,-0.5055,-0.3805,-0.3135,-0.3135,-0.254,-0.1965,-0.321,0.096,0.0045,-0.02
-0.946,-0.9705,-0.0245,0.9585,-0.461,-0.4975,-0.3845,-0.3185,-0.3165,-0.2595,-0.201,-0.326,0.0965,0.0105,-0.0255
-0.9845,-0.95,0.0345,0.9675,-0.51,-0.4575,-0.3665,-0.304,-0.302,-0.242,-0.183,-0.307,0.096,0.0255,-0.0225
-0.988,-0.959,0.029,0.9735,-0.5085,-0.465,-0.36,-0.302,-0.2995,-0.24,-0.1785,-0.3035,0.0965,0.015,-0.026
-0.9875,-0.965,0.0225,0.9765,-0.505,-0.4715,-0.356,-0.2985,-0.2985,-0.24,-0.176,-0.2985,0.0985,0.0095,-0.028
-0.9605,-0.951,0.0095,0.956,-0.485,-0.471,-0.366,-0.3045,-0.306,-0.2465,-0.186,-0.3035,0.099,0.028,-0.02
-0.9415,-0.959,-0.017,0.9505,-0.4625,-0.488,-0.3865,-0.322,-0.3285,-0.269,-0.207,-0.324,0.1005,0.03,-0.0205
-0.96,-0.9685,-0.0085,0.9645,-0.476,-0.4885,-0.39,-0.329,-0.339,-0.279,-0.217,-0.334,0.1005,0.033,-0.026
-0.9815,-0.9565,0.025,0.9695,-0.5035,-0.4655,-0.3815,-0.3215,-0.3295,-0.2705,-0.2065,-0.324,0.102,0.039,-0.03
-0.994,-0.9615,0.033,0.978,-0.5135,-0.464,-0.3705,-0.3135,-0.323,-0.262,-0.196,-0.3095,0.103,0.0255,-0.026
-0.968,-0.939,0.029,0.954,-0.4985,-0.455,-0.3645,-0.3105,-0.326,-0.261,-0.1945,-0.3065,0.1005,0.034,-0.019
-0.972,-0.9475,0.0245,0.96,-0.4985,-0.4615,-0.363,-0.311,-0.3295,-0.265,-0.195,-0.3075,0.099,0.0335,-0.0215
-0.984,-0.9785,0.006,0.9815,-0.4955,-0.486,-0.379,-0.33,-0.3455,-0.283,-0.2105,-0.321,0.1005,0.028,-0.0205
-0.979,-0.975,0.004,0.977,-0.4915,-0.4855,-0.3955,-0.3415,-0.3555,-0.293,-0.221,-0.331,0.104,0.0385,-0.0145
-1.004,-0.994,0.01,0.999,-0.507,-0.492,-0.3865,-0.3295,-0.3415,-0.2795,-0.207,-0.319,0.1055,0.0355,-0.0125
-1.0105,-0.983,0.0275,0.997,-0.5195,-0.4775,-0.363,-0.312,-0.3225,-0.261,-0.188,-0.3015,0.105,0.0245,-0.016
-0.9615,-0.955,0.0065,0.9585,-0.484,-0.474,-0.357,-0.3085,-0.318,-0.2595,-0.1855,-0.302,0.107,0.012,-0.019
-0.913,-0.9455,-0.0325,0.9295,-0.44,-0.489,-0.3715,-0.3195,-0.3275,-0.269,-0.195,-0.312,0.1085,0.015,-0.015
-0.9315,-0.945,-0.0135,0.9385,-0.459,-0.4795,-0.3775,-0.32,-0.326,-0.268,-0.194,-0.31,0.109,0.0105,-0.0105
-0.9515,-0.9485,0.003,0.9505,-0.4775,-0.473,-0.371,-0.3075,-0.3155,-0.256,-0.181,-0.3005,0.1075,-0.0055,-0.0095
-0.941,-0.9525,-0.011,0.947,-0.4655,-0.4815,-0.364,-0.3,-0.314,-0.2535,-0.1775,-0.298,0.106,-0.014,-0.007
-0.965,-0.96,0.005,0.9625,-0.4855,-0.4775,-0.362,-0.296,-0.314,-0.253,-0.1745,-0.294,0.1075,-0.0145,-0.008
-0.9735,-0.9785,-0.0045,0.9765,-0.4845,-0.4915,-0.3815,-0.3135,-0.3345,-0.269,-0.1895,-0.311,0.108,-0.001,-0.012
-0.953,-1.0075,-0.0545,0.9805,-0.4495,-0.531,-0.4095,-0.343,-0.366,-0.299,-0.2205,-0.3425,0.1045,0.0085,-0.0105
-0.9225,-0.999,-0.0765,0.961,-0.4235,-0.538,-0.4215,-0.354,-0.3785,-0.312,-0.23,-0.3535,0.104,0.022,-0.004
-0.9075,-0.992,-0.0845,0.95,-0.4115,-0.5385,-0.425,-0.362,-0.3805,-0.315,-0.2325,-0.3575,0.1035,0.031,-0.002
-0.8265,-0.9885,-0.1625,0.9075,-0.332,-0.5755,-0.448,-0.391,-0.4045,-0.3415,-0.2595,-0.3835,0.1035,0.0345,-0.0065
-0.852,-0.9635,-0.1115,0.908,-0.3705,-0.5375,-0.4315,-0.375,-0.3895,-0.331,-0.248,-0.37,0.101,0.049,-0.009
-1.094,-0.9525,0.141,1.0235,-0.618,-0.406,-0.3475,-0.302,-0.3115,-0.253,-0.169,-0.288,0.099,0.048,-0.008
-1.1525,-0.9765,0.176,1.0645,-0.6645,-0.4005,-0.3405,-0.302,-0.31,-0.2515,-0.167,-0.2825,0.0975,0.0335,-0.008
-1.039,-0.9775,0.0615,1.0085,-0.5505,-0.458,-0.382,-0.339,-0.3505,-0.2945,-0.2125,-0.323,0.0955,0.033,-0.011
-0.991,-0.9565,0.0345,0.974,-0.513,-0.461,-0.3785,-0.326,-0.341,-0.2875,-0.206,-0.317,0.0955,0.0345,-0.013
-0.991,-0.97,0.021,0.981,-0.5065,-0.4745,-0.372,-0.3185,-0.335,-0.283,-0.204,-0.316,0.0945,0.022,-0.016
-0.9895,-0.961,0.0285,0.9755,-0.5095,-0.466,-0.381,-0.3275,-0.345,-0.289,-0.2105,-0.32,0.0965,0.0225,-0.018
-0.991,-0.9525,0.039,0.972,-0.515,-0.457,-0.389,-0.328,-0.3465,-0.2865,-0.2045,-0.3165,0.0945,0.0305,-0.014
-0.988,-0.9575,0.0305,0.973,-0.5095,-0.4635,-0.384,-0.3255,-0.338,-0.2775,-0.197,-0.3105,0.0935,0.0285,-0.0115
-0.9745,-0.948,0.026,0.9615,-0.5005,-0.461,-0.383,-0.3315,-0.338,-0.2765,-0.1955,-0.31,0.0965,0.0225,-0.0125
-0.9695,-0.947,0.0225,0.9585,-0.496,-0.4625,-0.3775,-0.33,-0.3415,-0.276,-0.1955,-0.3095,0.096,0.014,-0.01
-0.97,-0.9495,0.0205,0.96,-0.4955,-0.4645,-0.368,-0.32,-0.333,-0.2675,-0.189,-0.3025,0.094,0.007,-0.0095
-0.975,-0.9655,0.0095,0.9705,-0.4925,-0.478,-0.3745,-0.326,-0.3385,-0.2755,-0.1975,-0.31,0.094,0.002,-0.0095
-0.9765,-0.9765,0.0,0.977,-0.4885,-0.488,-0.383,-0.335,-0.35,-0.288,-0.208,-0.3215,0.091,0.007,-0.002
-0.9745,-0.9785,-0.004,0.977,-0.486,-0.491,-0.3885,-0.338,-0.3505,-0.2885,-0.207,-0.323,0.0915,0.007,-0.0065
-0.9745,-0.983,-0.0085,0.979,-0.483,-0.496,-0.3915,-0.3375,-0.349,-0.288,-0.208,-0.3205,0.0945,0.0085,-0.0095
-1.003,-0.9965,0.0065,1.0,-0.505,-0.495,-0.3925,-0.3385,-0.352,-0.2915,-0.2105,-0.323,0.093,0.012,-0.0115
-1.013,-0.998,0.015,1.0055,-0.5145,-0.4915,-0.393,-0.34,-0.357,-0.2935,-0.215,-0.3255,0.0935,0.0155,-0.014
-0.992,-0.9865,0.0055,0.9895,-0.499,-0.4905,-0.3915,-0.3365,-0.354,-0.2925,-0.215,-0.3235,0.0935,0.0305,-0.0115
-1.0,-0.9925,0.0075,0.9965,-0.504,-0.4925,-0.39,-0.3375,-0.35,-0.2895,-0.2135,-0.3225,0.0935,0.0265,-0.018
-1.005,-0.9955,0.0095,1.0005,-0.5075,-0.493,-0.3925,-0.339,-0.3545,-0.294,-0.2185,-0.329,0.093,0.0225,-0.0185
-1.0075,-0.991,0.0165,0.999,-0.512,-0.487,-0.3925,-0.3405,-0.3595,-0.2985,-0.22,-0.328,0.094,0.026,-0.016
-1.0265,-1.0035,0.023,1.015,-0.525,-0.49,-0.395,-0.35,-0.3675,-0.3035,-0.224,-0.3295,0.094,0.0245,-0.0105
-1.0055,-1.007,-0.0015,1.0065,-0.5025,-0.5045,-0.406,-0.363,-0.383,-0.318,-0.2345,-0.3405,0.092,0.019,-0.008
-0.9895,-0.9995,-0.0095,0.995,-0.4905,-0.5045,-0.4015,-0.36,-0.3835,-0.3185,-0.233,-0.337,0.0915,0.013,-0.012
-0.9915,-1.0085,-0.017,1.0,-0.487,-0.513,-0.408,-0.366,-0.39,-0.327,-0.239,-0.344,0.0905,0.021,-0.0065
-1.0035,-1.001,0.0025,1.0025,-0.503,-0.4995,-0.4125,-0.3725,-0.3935,-0.332,-0.2435,-0.3475,0.0905,0.034,-0.0105
-1.0355,-1.0025,0.033,1.019,-0.5345,-0.485,-0.397,-0.3585,-0.376,-0.3155,-0.2285,-0.3335,0.089,0.031,-0.0085
-1.033,-1.0225,0.01,1.028,-0.5215,-0.506,-0.395,-0.359,-0.374,-0.313,-0.2265,-0.331,0.0905,0.004,-0.006
-1.035,-1.037,-0.002,1.036,-0.5165,-0.5195,-0.394,-0.3575,-0.3735,-0.3105,-0.225,-0.329,0.0945,-0.006,-0.0005
-1.0415,-1.05,-0.0085,1.046,-0.517,-0.5295,-0.393,-0.3545,-0.3685,-0.306,-0.223,-0.33,0.0955,0.0045,0.0045
-1.057,-1.0405,0.0165,1.049,-0.537,-0.512,-0.3855,-0.348,-0.362,-0.301,-0.218,-0.326,0.094,0.0145,-0.011
-1.033,-1.0295,0.0035,1.0315,-0.5185,-0.513,-0.3945,-0.3535,-0.3675,-0.3065,-0.2235,-0.3315,0.095,0.02,-0.0085
-1.009,-1.0305,-0.0215,1.02,-0.494,-0.526,-0.408,-0.3635,-0.3755,-0.315,-0.2325,-0.3405,0.0975,0.0155,0.0
-1.003,-1.0055,-0.0025,1.0045,-0.5005,-0.504,-0.394,-0.3455,-0.3595,-0.2975,-0.213,-0.3205,0.0995,0.01,0.002
-0.9755,-0.994,-0.0185,0.985,-0.479,-0.506,-0.3865,-0.3385,-0.352,-0.2905,-0.2055,-0.31,0.1,-0.0025,0.004
-0.9895,-1.0095,-0.0205,0.9995,-0.485,-0.515,-0.3835,-0.337,-0.3505,-0.2915,-0.2065,-0.315,0.0965,-0.008,0.002
-0.9855,-0.9955,-0.01,0.9905,-0.4885,-0.5025,-0.383,-0.34,-0.353,-0.292,-0.205,-0.3145,0.0965,-0.0035,0.0005
-0.967,-0.9815,-0.0145,0.9745,-0.4765,-0.498,-0.39,-0.3515,-0.3635,-0.3005,-0.211,-0.32,0.0945,0.0005,-0.003
-0.9835,-1.0,-0.0165,0.992,-0.4835,-0.5085,-0.4015,-0.362,-0.3735,-0.312,-0.2215,-0.3295,0.0935,0.008,-0.0045
-0.9935,-1.0095,-0.016,1.002,-0.489,-0.5125,-0.4115,-0.37,-0.3855,-0.323,-0.2325,-0.339,0.092,0.0065,-0.007
-0.994,-1.0045,-0.0105,0.9995,-0.492,-0.5075,-0.418,-0.3755,-0.396,-0.3345,-0.24,-0.3475,0.0895,0.0085,-0.007
-1.009,-1.0105,-0.0015,1.01,-0.504,-0.506,-0.408,-0.369,-0.3875,-0.3265,-0.2345,-0.343,0.0875,0.018,-0.0055
-1.025,-1.038,-0.013,1.032,-0.5065,-0.5255,-0.4055,-0.3675,-0.386,-0.326,-0.236,-0.344,0.0845,0.01,-0.0085
-1.047,-1.06,-0.0125,1.0535,-0.5175,-0.536,-0.4175,-0.378,-0.3975,-0.3405,-0.248,-0.355,0.0865,0.011,-0.011
-1.0785,-1.0815,-0.003,1.0805,-0.538,-0.542,-0.4315,-0.394,-0.4095,-0.3525,-0.262,-0.368,0.0885,0.0285,-0.0115
-1.0775,-1.0795,-0.002,1.079,-0.538,-0.541,-0.4375,-0.3975,-0.4125,-0.354,-0.2655,-0.369,0.09,0.0385,-0.0095
-1.016,-1.0275,-0.0115,1.022,-0.5025,-0.5195,-0.4235,-0.3785,-0.3935,-0.334,-0.2455,-0.348,0.0915,0.0455,-0.0085
-0.9825,-1.006,-0.0235,0.9945,-0.48,-0.515,-0.412,-0.3655,-0.3795,-0.3215,-0.2335,-0.335,0.092,0.032,-0.0055
-0.9815,-1.004,-0.022,0.993,-0.48,-0.513,-0.4,-0.3595,-0.3745,-0.315,-0.2275,-0.33,0.094,0.016,-0.0015
-0.9845,-1.038,-0.0535,1.0115,-0.4655,-0.546,-0.4145,-0.378,-0.3965,-0.33,-0.242,-0.3435,0.093,0.0085,0.004
-0.9885,-1.048,-0.0595,1.0185,-0.465,-0.5535,-0.406,-0.3705,-0.3935,-0.3255,-0.237,-0.3385,0.0925,-0.0035,0.011
-0.959,-1.01,-0.051,0.985,-0.4545,-0.5305,-0.392,-0.3595,-0.377,-0.311,-0.2225,-0.327,0.0935,0.0005,0.0065
-0.9725,-1.0165,-0.044,0.995,-0.4645,-0.5305,-0.4025,-0.3665,-0.383,-0.315,-0.2275,-0.332,0.094,0.002,0.0015
-1.0395,-1.016,0.0235,1.0285,-0.532,-0.4965,-0.388,-0.3465,-0.365,-0.2965,-0.2075,-0.313,0.0925,0.009,0.003
-1.0855,-1.0185,0.067,1.0525,-0.5765,-0.476,-0.3755,-0.3355,-0.3545,-0.2865,-0.1965,-0.302,0.0915,0.022,0.0025
-1.1055,-1.038,0.0675,1.072,-0.587,-0.485,-0.385,-0.3465,-0.367,-0.301,-0.21,-0.316,0.091,0.0105,0.0005
-1.081,-1.0425,0.0385,1.0625,-0.56,-0.5025,-0.4025,-0.365,-0.387,-0.323,-0.2295,-0.336,0.091,-0.004,-0.0015
-1.0855,-1.043,0.042,1.0645,-0.564,-0.5005,-0.406,-0.3695,-0.393,-0.3285,-0.2335,-0.3395,0.09,0.0145,-0.0025
-1.028,-0.992,0.0355,1.01,-0.532,-0.478,-0.405,-0.367,-0.39,-0.3255,-0.2305,-0.3365,0.089,0.032,-0.002
-0.9415,-0.9445,-0.003,0.943,-0.4695,-0.4735,-0.4015,-0.359,-0.3865,-0.323,-0.225,-0.3335,0.087,0.033,-0.0035
-0.994,-0.975,0.019,0.985,-0.507,-0.478,-0.397,-0.353,-0.3795,-0.315,-0.2175,-0.325,0.0855,0.0235,-0.0035
-0.967,-1.0065,-0.04,0.987,-0.4635,-0.523,-0.427,-0.382,-0.409,-0.345,-0.2495,-0.352,0.088,0.018,0.002
-0.984,-1.0025,-0.0185,0.9935,-0.483,-0.5105,-0.4285,-0.389,-0.4135,-0.35,-0.2535,-0.354,0.0875,0.038,0.0025
-1.0565,-1.003,0.053,1.03,-0.555,-0.475,-0.408,-0.374,-0.394,-0.3315,-0.2335,-0.336,0.0855,0.0465,-0.002
-1.042,-1.0235,0.0185,1.033,-0.5305,-0.5025,-0.415,-0.382,-0.4005,-0.34,-0.2435,-0.347,0.086,0.031,-0.0135
-1.0515,-1.0375,0.0135,1.0445,-0.533,-0.512,-0.409,-0.379,-0.394,-0.335,-0.2415,-0.343,0.0875,0.011,-0.0085
-1.043,-1.043,0.0,1.043,-0.5215,-0.5215,-0.4075,-0.379,-0.3905,-0.333,-0.2385,-0.3425,0.089,0.014,0.0025
-1.0265,-1.0445,-0.018,1.0355,-0.5045,-0.5315,-0.4105,-0.383,-0.393,-0.3335,-0.242,-0.3485,0.088,0.016,-0.007
-1.026,-1.0465,-0.0205,1.0365,-0.5025,-0.5335,-0.407,-0.371,-0.3875,-0.326,-0.2355,-0.344,0.088,0.0175,-0.0085
-1.048,-1.038,0.01,1.0435,-0.529,-0.514,-0.408,-0.366,-0.3835,-0.3185,-0.2285,-0.3395,0.0885,0.018,-0.009
-1.0525,-1.0375,0.015,1.0455,-0.534,-0.5115,-0.4145,-0.382,-0.3935,-0.3265,-0.2345,-0.345,0.0885,0.0115,-0.0055
-1.0415,-1.05,-0.0085,1.046,-0.517,-0.529,-0.4175,-0.387,-0.3995,-0.331,-0.2375,-0.3475,0.0875,0.003,-0.001
-1.0195,-1.0675,-0.048,1.0435,-0.486,-0.558,-0.43,-0.3995,-0.4135,-0.344,-0.25,-0.359,0.0875,-0.0155,0.001
-1.067,-1.0585,0.008,1.063,-0.538,-0.525,-0.4115,-0.3815,-0.398,-0.33,-0.235,-0.339,0.0915,-0.0085,0.004
-1.115,-1.0225,0.0925,1.069,-0.604,-0.465,-0.38,-0.3505,-0.3615,-0.2945,-0.2035,-0.3075,0.0915,0.005,-0.0025
-1.0275,-1.026,0.0015,1.027,-0.5145,-0.5125,-0.403,-0.3725,-0.3855,-0.3205,-0.228,-0.3325,0.0905,0.0075,0.0
-1.01,-1.041,-0.031,1.026,-0.49,-0.536,-0.4185,-0.3795,-0.401,-0.3375,-0.2445,-0.3455,0.0925,0.0105,0.0
-1.0465,-1.046,0.0,1.0465,-0.5235,-0.523,-0.418,-0.3765,-0.3975,-0.336,-0.243,-0.3455,0.0925,0.016,-0.0005
-1.044,-1.0275,0.0165,1.036,-0.5305,-0.5055,-0.4075,-0.3645,-0.396,-0.3325,-0.2395,-0.342,0.0905,0.03,-0.003
-1.0545,-1.0035,0.051,1.0295,-0.553,-0.4765,-0.3945,-0.3555,-0.382,-0.3185,-0.226,-0.3285,0.0865,0.0355,-0.0045
-1.063,-0.998,0.0655,1.0305,-0.5645,-0.466,-0.385,-0.351,-0.367,-0.3065,-0.216,-0.319,0.087,0.034,-0.004
-1.0885,-1.0145,0.074,1.0515,-0.5815,-0.47,-0.3795,-0.3435,-0.3635,-0.302,-0.2105,-0.315,0.0875,0.036,-0.005
-1.0545,-1.0295,0.025,1.042,-0.54,-0.502,-0.404,-0.3655,-0.389,-0.325,-0.232,-0.3355,0.0855,0.038,-0.0055
-1.0365,-1.019,0.0175,1.028,-0.527,-0.501,-0.406,-0.367,-0.3915,-0.3305,-0.2355,-0.338,0.0845,0.0405,-0.006
-1.0375,-1.03,0.0075,1.034,-0.523,-0.511,-0.4105,-0.3745,-0.397,-0.3355,-0.238,-0.3425,0.0845,0.045,-0.001
-0.9975,-1.0435,-0.0455,1.0205,-0.476,-0.5445,-0.43,-0.397,-0.4235,-0.356,-0.2575,-0.3605,0.087,0.0305,-0.0035
-1.0215,-1.0545,-0.033,1.038,-0.4945,-0.544,-0.433,-0.3965,-0.4245,-0.3555,-0.255,-0.3595,0.088,0.0215,-0.002
-1.0155,-1.049,-0.0335,1.0325,-0.4915,-0.541,-0.43,-0.3975,-0.423,-0.352,-0.252,-0.3565,0.085,0.0145,0.0005
-0.9995,-1.035,-0.0355,1.0175,-0.482,-0.5355,-0.4195,-0.392,-0.416,-0.3475,-0.247,-0.3505,0.0845,-0.001,-0.002
-1.0075,-1.0375,-0.0305,1.0225,-0.489,-0.534,-0.411,-0.382,-0.407,-0.34,-0.242,-0.3475,0.084,0.003,-0.002
-1.0275,-1.0255,0.002,1.027,-0.515,-0.5115,-0.393,-0.364,-0.389,-0.323,-0.228,-0.332,0.083,0.005,0.0045
-1.0765,-1.044,0.0325,1.0605,-0.555,-0.5055,-0.3965,-0.36,-0.383,-0.318,-0.2215,-0.3265,0.083,0.0135,0.009
-1.075,-1.0525,0.023,1.064,-0.5495,-0.5145,-0.4065,-0.3675,-0.391,-0.324,-0.227,-0.332,0.084,0.019,0.0065
-1.0375,-1.0365,0.001,1.037,-0.5195,-0.5175,-0.4175,-0.377,-0.401,-0.3335,-0.2365,-0.34,0.0875,0.0185,0.005
-1.041,-1.039,0.002,1.0405,-0.522,-0.5185,-0.4185,-0.377,-0.399,-0.3315,-0.2375,-0.34,0.089,0.0205,0.005
-1.023,-1.026,-0.0025,1.025,-0.5105,-0.514,-0.4035,-0.366,-0.3885,-0.3225,-0.229,-0.332,0.0895,0.014,0.0095
-0.962,-1.022,-0.0605,0.992,-0.451,-0.541,-0.4235,-0.3845,-0.411,-0.347,-0.2505,-0.3535,0.091,0.023,0.0095
-0.9395,-1.037,-0.0975,0.9885,-0.4215,-0.567,-0.4515,-0.4125,-0.4415,-0.377,-0.2815,-0.3815,0.0915,0.036,0.0075
-0.868,-1.049,-0.181,0.9585,-0.3435,-0.615,-0.4915,-0.451,-0.479,-0.414,-0.3195,-0.419,0.091,0.0345,0.005
-0.9185,-1.047,-0.129,0.983,-0.395,-0.588,-0.4695,-0.4245,-0.453,-0.3905,-0.294,-0.3915,0.0905,0.0315,0.008
-1.1235,-1.0275,0.096,1.076,-0.61,-0.4655,-0.3895,-0.342,-0.371,-0.3075,-0.21,-0.3075,0.091,0.0295,0.006
-1.1565,-1.013,0.143,1.085,-0.65,-0.435,-0.3755,-0.332,-0.3585,-0.296,-0.199,-0.296,0.091,0.032,-0.0005
-1.085,-1.016,0.069,1.051,-0.5775,-0.4735,-0.3975,-0.3555,-0.3845,-0.323,-0.2245,-0.323,0.09,0.0395,0.003
-1.0465,-1.014,0.0325,1.0305,-0.5395,-0.491,-0.4175,-0.375,-0.404,-0.3425,-0.241,-0.3445,0.088,0.055,0.0015
-1.0575,-1.0295,0.028,1.0435,-0.543,-0.501,-0.426,-0.384,-0.411,-0.3505,-0.2505,-0.3525,0.088,0.061,0.0015
-1.071,-1.019,0.052,1.0455,-0.562,-0.4835,-0.4155,-0.3725,-0.4005,-0.338,-0.237,-0.3425,0.0875,0.049,0.0035
-1.04,-0.992,0.048,1.0165,-0.5445,-0.472,-0.4095,-0.365,-0.3945,-0.3305,-0.228,-0.337,0.086,0.0405,0.003
-1.0345,-1.0155,0.019,1.025,-0.527,-0.498,-0.408,-0.364,-0.395,-0.3285,-0.227,-0.337,0.085,0.038,0.007
-1.0455,-1.0375,0.0075,1.0415,-0.5265,-0.515,-0.409,-0.367,-0.394,-0.327,-0.2255,-0.337,0.082,0.027,0.0075
-1.055,-1.0495,0.0055,1.0525,-0.531,-0.522,-0.4145,-0.3725,-0.396,-0.3295,-0.2295,-0.3385,0.0825,0.016,0.0035
-1.0565,-1.044,0.0125,1.0505,-0.535,-0.516,-0.4135,-0.3725,-0.3995,-0.3305,-0.2305,-0.344,0.0815,0.014,0.002
-1.0575,-1.0275,0.03,1.043,-0.544,-0.4985,-0.407,-0.3675,-0.3975,-0.3265,-0.227,-0.3425,0.079,0.0225,0.0035
-1.0675,-1.022,0.0455,1.045,-0.557,-0.488,-0.4105,-0.3695,-0.399,-0.329,-0.231,-0.3445,0.079,0.034,0.0045
-1.0545,-1.0045,0.05,1.03,-0.5525,-0.4775,-0.403,-0.362,-0.393,-0.3225,-0.225,-0.3365,0.081,0.0285,0.003
-1.0365,-1.0075,0.029,1.022,-0.533,-0.489,-0.39,-0.3495,-0.383,-0.314,-0.2165,-0.329,0.0805,0.0115,0.004
-1.035,-1.0325,0.0025,1.034,-0.519,-0.515,-0.3985,-0.3595,-0.3945,-0.3285,-0.2305,-0.346,0.078,0.022,0.006
-1.0425,-1.017,0.0255,1.0305,-0.5345,-0.496,-0.3945,-0.357,-0.3925,-0.329,-0.232,-0.345,0.08,0.046,0.0025
-1.041,-1.01,0.0315,1.026,-0.5365,-0.4895,-0.3915,-0.358,-0.3945,-0.332,-0.233,-0.345,0.078,0.0375,0.0
-1.0245,-1.0185,0.006,1.0215,-0.5155,-0.506,-0.3985,-0.373,-0.408,-0.3425,-0.241,-0.3495,0.0775,0.022,0.003
-1.0145,-1.0225,-0.008,1.019,-0.5035,-0.5155,-0.4025,-0.3785,-0.414,-0.3455,-0.2455,-0.347,0.0815,0.0235,0.006
-1.04,-1.036,0.004,1.038,-0.522,-0.516,-0.413,-0.3825,-0.418,-0.348,-0.248,-0.347,0.083,0.0205,0.004
-1.044,-1.027,0.017,1.0355,-0.5305,-0.505,-0.423,-0.389,-0.4265,-0.354,-0.251,-0.3475,0.0825,0.0245,0.0105
-1.0125,-1.0135,-0.001,1.013,-0.506,-0.507,-0.4285,-0.3935,-0.434,-0.3625,-0.2565,-0.356,0.0815,0.0355,0.0205
-1.002,-1.0215,-0.019,1.012,-0.4915,-0.5205,-0.437,-0.3965,-0.433,-0.3635,-0.26,-0.3615,0.08,0.0285,0.015
-0.945,-1.02,-0.075,0.9825,-0.435,-0.5475,-0.451,-0.412,-0.4485,-0.3785,-0.277,-0.3785,0.0765,0.0385,0.0125
-0.936,-1.02,-0.0845,0.9785,-0.426,-0.552,-0.448,-0.4115,-0.449,-0.3805,-0.2785,-0.3825,0.078,0.032,0.0095
-1.0835,-1.0355,0.048,1.06,-0.566,-0.494,-0.416,-0.376,-0.4175,-0.3485,-0.246,-0.3505,0.0805,0.027,-0.0025
-1.15,-1.0275,0.1225,1.089,-0.6365,-0.4525,-0.3865,-0.3455,-0.3875,-0.317,-0.217,-0.32,0.0785,0.0355,-0.0055
-1.091,-1.041,0.05,1.0665,-0.5705,-0.4955,-0.401,-0.3545,-0.397,-0.3235,-0.223,-0.326,0.0775,0.014,-0.0015
-1.0605,-1.055,0.0055,1.058,-0.5335,-0.525,-0.414,-0.3645,-0.4115,-0.3345,-0.2315,-0.3355,0.076,0.005,0.003
-1.049,-1.0335,0.0155,1.0415,-0.5325,-0.509,-0.412,-0.3665,-0.415,-0.3395,-0.237,-0.3405,0.0765,0.007,0.002
-1.078,-1.043,0.035,1.0605,-0.557,-0.5035,-0.4245,-0.3805,-0.43,-0.3555,-0.2535,-0.359,0.076,0.02,0.002
-1.113,-1.0795,0.0335,1.0965,-0.5735,-0.523,-0.4345,-0.391,-0.4345,-0.3595,-0.2585,-0.365,0.077,0.014,0.003
-1.0725,-1.071,0.0015,1.072,-0.537,-0.535,-0.4335,-0.3975,-0.432,-0.358,-0.2575,-0.3655,0.078,0.0045,-0.001
-1.041,-1.052,-0.011,1.047,-0.5155,-0.5315,-0.4245,-0.395,-0.4255,-0.3525,-0.2525,-0.3615,0.0765,0.015,0.008
-1.0435,-1.045,-0.0015,1.0445,-0.521,-0.5235,-0.4135,-0.3885,-0.4165,-0.344,-0.2435,-0.351,0.0775,0.0135,0.007
-1.0355,-1.0195,0.016,1.028,-0.526,-0.502,-0.4035,-0.3795,-0.409,-0.3375,-0.2365,-0.344,0.0765,0.0105,-0.006
-1.0345,-1.004,0.0305,1.0195,-0.533,-0.4865,-0.4035,-0.376,-0.4085,-0.3385,-0.239,-0.346,0.0745,0.034,-0.0045
-1.0045,-0.984,0.0205,0.9945,-0.513,-0.4815,-0.416,-0.377,-0.4135,-0.346,-0.2455,-0.352,0.074,0.0475,0.001
-0.9885,-0.996,-0.008,0.9925,-0.4905,-0.502,-0.4255,-0.3835,-0.42,-0.3535,-0.2525,-0.357,0.076,0.0215,-0.0025
-0.9915,-1.005,-0.013,0.9985,-0.4895,-0.509,-0.415,-0.3765,-0.411,-0.346,-0.245,-0.3485,0.0785,0.0185,-0.01
-0.9875,-0.9805,0.007,0.9845,-0.4975,-0.487,-0.4085,-0.3635,-0.402,-0.3395,-0.239,-0.343,0.078,0.032,-0.015
-1.005,-0.982,0.0225,0.994,-0.514,-0.48,-0.4105,-0.3665,-0.4055,-0.343,-0.241,-0.3465,0.078,0.0385,-0.0135
-1.0155,-1.004,0.0115,1.01,-0.5135,-0.4965,-0.4155,-0.3715,-0.4095,-0.3475,-0.245,-0.3515,0.0795,0.049,-0.006
-1.0425,-1.025,0.018,1.034,-0.5305,-0.5035,-0.4225,-0.3755,-0.418,-0.355,-0.256,-0.3605,0.08,0.047,-0.0025
-1.0765,-1.055,0.021,1.066,-0.549,-0.517,-0.4325,-0.387,-0.4285,-0.3665,-0.267,-0.3715,0.0785,0.0365,0.004
-1.0975,-1.089,0.0085,1.0935,-0.553,-0.54,-0.4385,-0.394,-0.4375,-0.374,-0.272,-0.3745,0.078,0.018,0.0025
-1.098,-1.101,-0.0025,1.0995,-0.548,-0.5515,-0.433,-0.394,-0.436,-0.3705,-0.268,-0.371,0.079,0.013,-0.0015
-1.048,-1.075,-0.0265,1.0615,-0.511,-0.551,-0.422,-0.387,-0.425,-0.36,-0.257,-0.361,0.081,0.0115,-0.0005
-0.954,-0.992,-0.038,0.9735,-0.4585,-0.515,-0.404,-0.364,-0.404,-0.3355,-0.2325,-0.3365,0.084,0.006,-0.004
-0.907,-0.958,-0.0505,0.9325,-0.4285,-0.5045,-0.404,-0.366,-0.405,-0.337,-0.233,-0.3385,0.083,0.0145,0.0005
-1.03,-0.9905,0.04,1.0105,-0.5355,-0.475,-0.3815,-0.347,-0.3845,-0.32,-0.2155,-0.3215,0.083,0.0175,-0.0005
-1.11,-1.028,0.082,1.0695,-0.5965,-0.473,-0.372,-0.3335,-0.372,-0.307,-0.2045,-0.311,0.0855,0.011,-0.0045
-1.039,-1.042,-0.003,1.0405,-0.518,-0.5225,-0.405,-0.3675,-0.405,-0.335,-0.235,-0.341,0.09,0.01,-0.009
-1.0085,-1.0485,-0.0405,1.029,-0.484,-0.5445,-0.4245,-0.3915,-0.428,-0.352,-0.251,-0.357,0.09,0.002,-0.003
-1.0075,-1.0345,-0.027,1.0215,-0.4905,-0.531,-0.414,-0.383,-0.428,-0.349,-0.245,-0.349,0.0875,-0.0015,0.007
-1.0285,-1.0115,0.0165,1.0205,-0.5225,-0.4975,-0.393,-0.3595,-0.409,-0.3335,-0.2305,-0.3345,0.0865,0.014,-0.001
-1.0655,-1.0375,0.028,1.0515,-0.547,-0.5045,-0.408,-0.37,-0.4165,-0.345,-0.243,-0.3475,0.088,0.0265,-0.009
-1.0365,-1.0105,0.0265,1.0235,-0.5315,-0.492,-0.409,-0.368,-0.4125,-0.343,-0.2415,-0.344,0.0895,0.0325,-0.0065
-1.0225,-1.0,0.0225,1.0115,-0.523,-0.4885,-0.404,-0.358,-0.408,-0.337,-0.236,-0.337,0.088,0.028,-0.002
-1.0375,-1.0015,0.036,1.02,-0.537,-0.483,-0.401,-0.356,-0.4085,-0.339,-0.2365,-0.34,0.0855,0.035,0.0025
-0.9935,-0.962,0.032,0.978,-0.513,-0.465,-0.3865,-0.3475,-0.4,-0.333,-0.2285,-0.3345,0.085,0.0425,-0.001
-0.9815,-0.949,0.0325,0.9655,-0.5075,-0.4585,-0.392,-0.352,-0.404,-0.337,-0.2315,-0.338,0.086,0.0555,-0.008
-0.9925,-0.9575,0.035,0.9755,-0.514,-0.4615,-0.395,-0.3575,-0.4095,-0.3415,-0.2375,-0.345,0.0845,0.0645,-0.011
-0.9815,-0.978,0.0035,0.98,-0.4925,-0.4875,-0.3955,-0.3575,-0.4095,-0.341,-0.239,-0.3475,0.084,0.0455,-0.0125
-1.0025,-0.992,0.0105,0.997,-0.5065,-0.4905,-0.3885,-0.3475,-0.3965,-0.331,-0.2295,-0.339,0.0865,0.045,-0.013
-1.006,-0.9885,0.0175,0.9975,-0.512,-0.4855,-0.374,-0.3355,-0.386,-0.3205,-0.222,-0.331,0.0885,0.0425,-0.018
-0.984,-0.978,0.0055,0.9815,-0.495,-0.4865,-0.378,-0.339,-0.39,-0.323,-0.2255,-0.3375,0.089,0.043,-0.0175
-0.9905,-0.985,0.005,0.988,-0.498,-0.49,-0.3815,-0.34,-0.3915,-0.324,-0.2265,-0.339,0.092,0.047,-0.018
-1.004,-0.985,0.019,0.995,-0.512,-0.483,-0.372,-0.329,-0.3805,-0.3115,-0.2165,-0.329,0.0905,0.0425,-0.025
-1.0155,-0.988,0.0275,1.002,-0.522,-0.4805,-0.364,-0.3195,-0.3695,-0.2995,-0.2075,-0.32,0.0905,0.04,-0.023
-1.0255,-0.9905,0.0345,1.0085,-0.5305,-0.478,-0.357,-0.313,-0.3645,-0.2925,-0.201,-0.317,0.093,0.0455,-0.0215
-1.012,-0.9835,0.028,0.998,-0.52,-0.478,-0.359,-0.3145,-0.3655,-0.293,-0.2,-0.32,0.093,0.0555,-0.0235
-1.0095,-0.977,0.033,0.9935,-0.5215,-0.472,-0.3615,-0.317,-0.366,-0.2955,-0.202,-0.322,0.0955,0.0505,-0.028
-1.03,-0.9685,0.0615,0.9995,-0.546,-0.4535,-0.353,-0.3115,-0.3635,-0.293,-0.202,-0.321,0.092,0.0615,-0.027
-1.0525,-0.974,0.0785,1.0135,-0.5655,-0.448,-0.3415,-0.303,-0.359,-0.2855,-0.1965,-0.314,0.091,0.076,-0.025
-1.007,-0.9735,0.0335,0.9905,-0.5205,-0.47,-0.3545,-0.3165,-0.3735,-0.3015,-0.211,-0.3305,0.092,0.074,-0.0315
-0.9715,-0.968,0.0035,0.97,-0.488,-0.482,-0.369,-0.3285,-0.3855,-0.315,-0.226,-0.344,0.0935,0.0725,-0.0355
-1.0205,-0.964,0.0565,0.9925,-0.5385,-0.4535,-0.356,-0.3135,-0.3705,-0.3,-0.2115,-0.328,0.095,0.075,-0.0325
-1.031,-0.977,0.054,1.0045,-0.5425,-0.4615,-0.3585,-0.3095,-0.372,-0.304,-0.2135,-0.3285,0.0935,0.072,-0.033
-1.029,-0.99,0.039,1.01,-0.534,-0.476,-0.369,-0.3135,-0.376,-0.3085,-0.2185,-0.3325,0.094,0.064,-0.038
-1.01,-0.976,0.034,0.9935,-0.5225,-0.471,-0.3805,-0.325,-0.378,-0.3125,-0.2255,-0.3405,0.0945,0.072,-0.038
-0.9755,-0.969,0.0065,0.9725,-0.491,-0.4815,-0.396,-0.3335,-0.389,-0.326,-0.238,-0.352,0.098,0.078,-0.0365
-1.012,-0.9745,0.037,0.9935,-0.525,-0.4685,-0.3815,-0.314,-0.3725,-0.3095,-0.221,-0.3365,0.0985,0.0735,-0.038
-1.008,-0.981,0.027,0.995,-0.518,-0.477,-0.386,-0.3145,-0.371,-0.308,-0.221,-0.3375,0.0975,0.07,-0.0445
-0.9785,-0.9855,-0.007,0.9825,-0.486,-0.496,-0.397,-0.3225,-0.3785,-0.3155,-0.2275,-0.3455,0.0995,0.069,-0.051
-0.9925,-0.978,0.0145,0.9855,-0.5035,-0.4815,-0.383,-0.3015,-0.3545,-0.293,-0.205,-0.3255,0.102,0.0725,-0.043
-0.9855,-0.9615,0.024,0.9735,-0.505,-0.4685,-0.386,-0.294,-0.349,-0.2885,-0.2015,-0.321,0.104,0.07,-0.031
-1.0,-0.9675,0.033,0.984,-0.517,-0.467,-0.379,-0.2815,-0.345,-0.2815,-0.198,-0.318,0.104,0.058,-0.0355
-0.953,-0.9545,-0.0015,0.954,-0.476,-0.478,-0.376,-0.2695,-0.337,-0.274,-0.1915,-0.312,0.1035,0.0505,-0.0415
-0.9255,-0.937,-0.0115,0.9315,-0.4575,-0.474,-0.3745,-0.2645,-0.329,-0.2655,-0.186,-0.306,0.103,0.0505,-0.042
-0.9995,-0.969,0.031,0.9845,-0.5155,-0.469,-0.368,-0.2565,-0.319,-0.2545,-0.179,-0.298,0.105,0.053,-0.041
-1.021,-0.9885,0.032,1.005,-0.527,-0.478,-0.381,-0.2725,-0.3305,-0.267,-0.191,-0.308,0.1075,0.0515,-0.035
-1.005,-0.9735,0.031,0.9895,-0.518,-0.4715,-0.388,-0.2855,-0.339,-0.2735,-0.1965,-0.3115,0.11,0.044,-0.0315
-1.0215,-0.9915,0.0295,1.007,-0.526,-0.481,-0.4035,-0.3025,-0.3525,-0.2835,-0.204,-0.319,0.1105,0.048,-0.03
-1.033,-1.0145,0.0185,1.024,-0.526,-0.498,-0.4185,-0.3235,-0.3605,-0.293,-0.2115,-0.328,0.11,0.044,-0.0295
-1.0035,-1.0005,0.0025,1.0025,-0.5035,-0.499,-0.429,-0.343,-0.367,-0.298,-0.213,-0.3285,0.113,0.0515,-0.026
-1.0145,-0.9925,0.022,1.004,-0.5185,-0.485,-0.4355,-0.358,-0.373,-0.3005,-0.2105,-0.3255,0.112,0.0645,-0.021
-1.0215,-1.007,0.0145,1.0145,-0.5185,-0.4965,-0.455,-0.3795,-0.389,-0.3145,-0.2235,-0.34,0.11,0.0505,-0.019
-1.0445,-1.0465,-0.002,1.046,-0.5215,-0.5245,-0.4775,-0.403,-0.4105,-0.3355,-0.2405,-0.358,0.1065,0.055,-0.0155
-1.05,-1.034,0.016,1.0425,-0.5335,-0.509,-0.474,-0.4025,-0.4025,-0.328,-0.2285,-0.3455,0.102,0.0495,-0.0125
-0.973,-0.9985,-0.0255,0.986,-0.474,-0.512,-0.4855,-0.4135,-0.4085,-0.335,-0.2325,-0.3495,0.1005,0.039,-0.011
-0.9675,-0.99,-0.0225,0.979,-0.4725,-0.5065,-0.486,-0.413,-0.413,-0.3405,-0.233,-0.3485,0.101,0.051,-0.0065
-0.9765,-0.9615,0.015,0.969,-0.496,-0.4735,-0.4755,-0.4045,-0.406,-0.331,-0.2235,-0.337,0.1015,0.062,-0.002
-0.96,-0.924,0.0365,0.9425,-0.4985,-0.444,-0.4645,-0.397,-0.397,-0.3235,-0.2165,-0.3305,0.101,0.069,-0.003
-0.964,-0.9095,0.0545,0.937,-0.5095,-0.4275,-0.4495,-0.381,-0.385,-0.3095,-0.2055,-0.316,0.1,0.072,0.0025
-0.963,-0.941,0.022,0.952,-0.4925,-0.4595,-0.445,-0.382,-0.387,-0.308,-0.2055,-0.314,0.102,0.059,0.0105
-0.961,-0.967,-0.006,0.9645,-0.4775,-0.4865,-0.4465,-0.3905,-0.396,-0.3155,-0.213,-0.3205,0.1015,0.0415,0.0065
-0.945,-0.9715,-0.026,0.9585,-0.46,-0.499,-0.462,-0.3985,-0.4025,-0.3215,-0.2225,-0.3285,0.103,0.039,0.002
-0.9525,-0.978,-0.026,0.9655,-0.4635,-0.502,-0.461,-0.3945,-0.3975,-0.318,-0.219,-0.327,0.105,0.026,0.002
-0.972,-0.9695,0.0025,0.971,-0.4875,-0.4835,-0.441,-0.379,-0.3845,-0.3035,-0.2035,-0.3105,0.101,0.02,0.006
-0.981,-0.975,0.006,0.9785,-0.494,-0.4845,-0.4405,-0.3765,-0.377,-0.298,-0.197,-0.301,0.1055,0.028,0.0125
-0.9825,-0.984,-0.002,0.9835,-0.4905,-0.493,-0.452,-0.3855,-0.3825,-0.3065,-0.2035,-0.309,0.1075,0.0285,0.017
-0.9815,-0.9795,0.0015,0.981,-0.492,-0.489,-0.449,-0.382,-0.3845,-0.306,-0.2025,-0.3085,0.106,0.0275,0.0235
-1.0055,-0.9945,0.0105,1.0,-0.5085,-0.492,-0.4485,-0.3855,-0.3815,-0.3045,-0.1975,-0.306,0.109,0.025,0.023
-1.01,-1.0115,-0.002,1.011,-0.504,-0.507,-0.4645,-0.4035,-0.397,-0.3195,-0.2105,-0.319,0.107,0.028,0.025
-0.986,-1.0025,-0.0165,0.9945,-0.485,-0.5095,-0.4795,-0.417,-0.4155,-0.338,-0.2265,-0.331,0.106,0.0365,0.03
-0.9815,-0.984,-0.0025,0.983,-0.49,-0.493,-0.481,-0.42,-0.4185,-0.343,-0.227,-0.332,0.103,0.0485,0.03
-0.991,-0.98,0.011,0.986,-0.5015,-0.4845,-0.4815,-0.423,-0.4235,-0.348,-0.2285,-0.3345,0.099,0.055,0.0345
-1.0,-0.9855,0.0145,0.993,-0.5075,-0.4855,-0.505,-0.4445,-0.4415,-0.366,-0.2435,-0.346,0.096,0.06,0.037
-0.9875,-0.974,0.0135,0.9815,-0.501,-0.4805,-0.511,-0.451,-0.4455,-0.3675,-0.241,-0.3435,0.0935,0.064,0.0375
-0.9615,-0.947,0.0145,0.9545,-0.4885,-0.4665,-0.4965,-0.447,-0.4415,-0.361,-0.2325,-0.333,0.093,0.073,0.039
-0.972,-0.9435,0.0285,0.958,-0.5005,-0.4575,-0.498,-0.4575,-0.4525,-0.37,-0.237,-0.334,0.089,0.087,0.0425
-1.0065,-0.953,0.0535,0.98,-0.5305,-0.4495,-0.498,-0.4625,-0.459,-0.3775,-0.241,-0.336,0.087,0.086,0.05
-1.038,-0.963,0.075,1.0005,-0.557,-0.4435,-0.4905,-0.456,-0.4535,-0.3725,-0.237,-0.3275,0.0885,0.081,0.0505
-1.018,-0.9865,0.0315,1.0025,-0.525,-0.478,-0.503,-0.4715,-0.4725,-0.391,-0.2565,-0.343,0.0855,0.0775,0.0565
-0.938,-0.9955,-0.0575,0.967,-0.4405,-0.5265,-0.526,-0.496,-0.507,-0.423,-0.2895,-0.373,0.083,0.0635,0.0575
-0.784,-0.9815,-0.198,0.883,-0.2935,-0.5895,-0.568,-0.5365,-0.5425,-0.458,-0.3255,-0.41,0.085,0.0625,0.0575
-0.705,-0.986,-0.2815,0.8455,-0.212,-0.6335,-0.6005,-0.5685,-0.5685,-0.4855,-0.351,-0.437,0.0845,0.0755,0.063
-0.9115,-0.9825,-0.071,0.9475,-0.4205,-0.527,-0.5215,-0.4945,-0.496,-0.4105,-0.2755,-0.364,0.0845,0.063,0.0565
-1.1315,-0.96,0.1715,1.046,-0.6515,-0.3945,-0.4285,-0.404,-0.403,-0.3175,-0.184,-0.2755,0.084,0.0635,0.0535
-1.157,-0.968,0.189,1.0625,-0.673,-0.389,-0.424,-0.3945,-0.393,-0.3085,-0.1765,-0.2675,0.083,0.068,0.048
-1.0885,-0.9865,0.1015,1.038,-0.595,-0.4425,-0.462,-0.422,-0.4185,-0.335,-0.2045,-0.297,0.085,0.062,0.0475
-1.016,-0.985,0.031,1.001,-0.524,-0.477,-0.493,-0.45,-0.445,-0.361,-0.231,-0.319,0.086,0.062,0.058
-1.021,-0.999,0.022,1.01,-0.5215,-0.4885,-0.501,-0.463,-0.459,-0.3745,-0.244,-0.329,0.0865,0.048,0.0605
-1.024,-1.0,0.024,1.0125,-0.524,-0.488,-0.5035,-0.466,-0.459,-0.377,-0.2445,-0.3305,0.0875,0.0545,0.0635
-0.999,-0.967,0.032,0.983,-0.516,-0.4675,-0.5055,-0.4705,-0.463,-0.38,-0.248,-0.329,0.09,0.067,0.0685
-1.0005,-0.965,0.036,0.983,-0.5185,-0.4645,-0.502,-0.471,-0.4655,-0.384,-0.251,-0.3285,0.091,0.068,0.0685
-1.0,-0.981,0.019,0.991,-0.5095,-0.4815,-0.4995,-0.468,-0.463,-0.382,-0.251,-0.3245,0.095,0.071,0.067
-0.9965,-0.9685,0.028,0.983,-0.513,-0.4705,-0.495,-0.464,-0.4585,-0.3775,-0.249,-0.3185,0.098,0.072,0.0665
-1.01,-0.9695,0.0405,0.99,-0.5255,-0.4645,-0.4985,-0.464,-0.459,-0.3815,-0.255,-0.325,0.0965,0.088,0.068
-1.0245,-0.996,0.029,1.0105,-0.527,-0.4835,-0.519,-0.4835,-0.479,-0.4015,-0.274,-0.3445,0.0955,0.101,0.0645
-1.0095,-0.989,0.0205,0.9995,-0.515,-0.4845,-0.513,-0.481,-0.4765,-0.3995,-0.269,-0.3415,0.0975,0.095,0.0635
-0.987,-0.989,-0.002,0.9885,-0.493,-0.4955,-0.511,-0.479,-0.474,-0.396,-0.267,-0.3415,0.099,0.085,0.0635
-0.9955,-0.9965,-0.0005,0.996,-0.4975,-0.4985,-0.517,-0.479,-0.475,-0.395,-0.2635,-0.34,0.1005,0.07,0.067
-1.015,-0.9825,0.0325,0.999,-0.524,-0.4755,-0.4945,-0.458,-0.4565,-0.374,-0.243,-0.322,0.1025,0.084,0.073
-0.988,-0.9685,0.0195,0.9785,-0.504,-0.4745,-0.496,-0.4605,-0.457,-0.376,-0.2415,-0.3235,0.1035,0.1015,0.061
-0.96,-0.951,0.009,0.9555,-0.485,-0.471,-0.505,-0.463,-0.4575,-0.3775,-0.244,-0.3255,0.103,0.093,0.0535
-0.9765,-0.9625,0.014,0.97,-0.4955,-0.474,-0.5095,-0.466,-0.456,-0.377,-0.248,-0.328,0.103,0.0815,0.0505
-1.015,-1.001,0.014,1.0085,-0.515,-0.4935,-0.506,-0.469,-0.463,-0.382,-0.255,-0.334,0.0995,0.0695,0.0535
-1.0005,-1.0225,-0.022,1.0115,-0.4895,-0.5225,-0.5075,-0.471,-0.471,-0.3895,-0.2655,-0.344,0.0945,0.065,0.062
-0.933,-1.012,-0.079,0.973,-0.427,-0.5455,-0.512,-0.474,-0.476,-0.3965,-0.272,-0.353,0.0955,0.053,0.0565
-0.9405,-1.025,-0.0845,0.983,-0.428,-0.555,-0.5125,-0.476,-0.481,-0.4005,-0.2765,-0.3605,0.0945,0.0545,0.046
-1.011,-1.0555,-0.0445,1.0335,-0.4835,-0.55,-0.513,-0.4765,-0.4825,-0.402,-0.278,-0.3625,0.094,0.053,0.039
-1.154,-1.066,0.0885,1.11,-0.6215,-0.4885,-0.464,-0.4335,-0.4455,-0.3635,-0.239,-0.323,0.091,0.044,0.0455
-1.1445,-1.0505,0.0945,1.0975,-0.6195,-0.478,-0.4565,-0.4225,-0.437,-0.3565,-0.233,-0.3165,0.091,0.056,0.046
-0.9875,-0.9925,-0.005,0.9905,-0.492,-0.4985,-0.4765,-0.4365,-0.4505,-0.373,-0.251,-0.3345,0.0945,0.069,0.038
-0.964,-0.962,0.002,0.963,-0.483,-0.48,-0.468,-0.435,-0.448,-0.3685,-0.2435,-0.326,0.094,0.072,0.0375
-0.9955,-0.9775,0.018,0.987,-0.507,-0.48,-0.4725,-0.4485,-0.465,-0.3795,-0.2515,-0.33,0.0925,0.073,0.042
-1.021,-0.9815,0.04,1.0015,-0.531,-0.471,-0.4625,-0.4395,-0.4645,-0.3805,-0.25,-0.3285,0.091,0.0755,0.046
-1.019,-0.9665,0.0525,0.993,-0.536,-0.457,-0.4555,-0.4285,-0.4565,-0.376,-0.246,-0.325,0.0885,0.072,0.0455
-1.0325,-0.9815,0.051,1.007,-0.542,-0.465,-0.465,-0.4425,-0.4655,-0.387,-0.258,-0.3375,0.086,0.0815,0.0445
-1.0575,-1.0105,0.047,1.034,-0.5525,-0.482,-0.4805,-0.4575,-0.475,-0.398,-0.269,-0.3495,0.085,0.0885,0.043
-1.0435,-1.015,0.0285,1.0295,-0.536,-0.4935,-0.4845,-0.4685,-0.4855,-0.405,-0.277,-0.358,0.0815,0.0805,0.04
-1.0625,-1.0195,0.043,1.041,-0.553,-0.488,-0.4675,-0.4635,-0.4795,-0.3965,-0.2685,-0.351,0.0795,0.0735,0.0385
-1.0595,-1.0095,0.05,1.0345,-0.555,-0.4795,-0.4595,-0.451,-0.466,-0.384,-0.2585,-0.341,0.08,0.07,0.034
-1.0335,-0.9895,0.044,1.0115,-0.539,-0.4725,-0.4545,-0.435,-0.454,-0.3755,-0.2505,-0.3355,0.0815,0.063,0.0285
-1.047,-0.9945,0.0525,1.021,-0.55,-0.471,-0.443,-0.4145,-0.4395,-0.3615,-0.239,-0.3245,0.0835,0.043,0.0285
-1.055,-1.0205,0.0345,1.038,-0.545,-0.493,-0.4395,-0.4155,-0.444,-0.3665,-0.247,-0.333,0.0805,0.0245,0.0255
-1.058,-1.037,0.021,1.0475,-0.54,-0.508,-0.437,-0.4145,-0.4445,-0.369,-0.2515,-0.3395,0.075,0.0345,0.0285
-1.0695,-1.053,0.0165,1.0615,-0.543,-0.5185,-0.4415,-0.4145,-0.4475,-0.3745,-0.257,-0.345,0.0735,0.037,0.0255
-1.0985,-1.081,0.0175,1.09,-0.5585,-0.5315,-0.4455,-0.4165,-0.4495,-0.3765,-0.26,-0.3495,0.073,0.021,0.0225
-1.084,-1.0855,-0.0015,1.085,-0.5415,-0.5435,-0.4545,-0.424,-0.451,-0.377,-0.263,-0.353,0.0735,0.008,0.0315
-1.024,-1.0565,-0.0325,1.0405,-0.496,-0.5445,-0.457,-0.4335,-0.4615,-0.3815,-0.2645,-0.3525,0.0735,0.0005,0.0345
-0.9995,-1.02,-0.0205,1.01,-0.4895,-0.5205,-0.439,-0.418,-0.448,-0.3675,-0.251,-0.3405,0.071,0.012,0.038
-1.016,-1.0125,0.0035,1.0145,-0.51,-0.5045,-0.438,-0.4135,-0.4455,-0.371,-0.2555,-0.348,0.068,0.0215,0.035
-1.023,-1.014,0.009,1.019,-0.5165,-0.5025,-0.439,-0.413,-0.4455,-0.374,-0.26,-0.3535,0.0655,0.0295,0.0285
-1.0215,-1.012,0.0095,1.017,-0.516,-0.501,-0.4285,-0.4025,-0.44,-0.3695,-0.2575,-0.35,0.067,0.023,0.03
-1.0405,-1.0325,0.008,1.0365,-0.5245,-0.5125,-0.437,-0.4115,-0.4515,-0.382,-0.269,-0.3635,0.063,0.023,0.0325
-1.0395,-1.032,0.0075,1.036,-0.5235,-0.512,-0.4495,-0.423,-0.46,-0.3925,-0.2805,-0.3715,0.0605,0.0395,0.0255
-1.0395,-1.0375,0.002,1.0385,-0.521,-0.5175,-0.461,-0.4325,-0.47,-0.4025,-0.2895,-0.3805,0.0615,0.0355,0.0225
-1.014,-1.085,-0.071,1.0495,-0.472,-0.578,-0.4905,-0.4605,-0.4955,-0.4295,-0.316,-0.4075,0.0595,0.02,0.0255
-0.9875,-1.0925,-0.105,1.04,-0.4415,-0.5985,-0.4905,-0.465,-0.497,-0.4305,-0.3165,-0.406,0.063,0.018,0.026
-1.031,-1.0735,-0.0425,1.0525,-0.4945,-0.558,-0.457,-0.44,-0.4725,-0.4065,-0.2885,-0.3825,0.062,0.022,0.0235
-1.0575,-1.0455,0.012,1.0515,-0.535,-0.5165,-0.439,-0.423,-0.459,-0.393,-0.276,-0.3665,0.0605,0.0265,0.0175
-1.063,-1.0235,0.0395,1.0435,-0.5515,-0.492,-0.439,-0.4195,-0.455,-0.389,-0.272,-0.3635,0.0625,0.0355,0.02
-1.0955,-1.023,0.0725,1.0595,-0.5845,-0.4755,-0.4375,-0.418,-0.451,-0.3865,-0.269,-0.3625,0.063,0.0395,0.0235
-1.1265,-1.033,0.0935,1.08,-0.61,-0.4695,-0.43,-0.4125,-0.446,-0.3795,-0.2625,-0.355,0.0665,0.0385,0.0205
-1.1455,-1.07,0.0755,1.108,-0.611,-0.4975,-0.4315,-0.4165,-0.452,-0.3815,-0.262,-0.3555,0.0675,0.0185,0.026
-1.116,-1.091,0.025,1.1035,-0.5705,-0.533,-0.451,-0.4335,-0.469,-0.397,-0.2755,-0.3685,0.069,0.0105,0.0355
-1.097,-1.109,-0.0125,1.1035,-0.5425,-0.561,-0.4635,-0.4455,-0.477,-0.4075,-0.287,-0.3835,0.069,0.011,0.034
-1.0895,-1.113,-0.0235,1.1015,-0.5335,-0.568,-0.4635,-0.4405,-0.47,-0.401,-0.284,-0.381,0.069,-0.0015,0.031
-1.033,-1.054,-0.0215,1.0435,-0.506,-0.538,-0.4495,-0.426,-0.454,-0.3865,-0.2685,-0.3655,0.069,-0.0055,0.034
-1.012,-1.022,-0.01,1.0175,-0.5015,-0.516,-0.436,-0.4185,-0.4475,-0.38,-0.2635,-0.359,0.0685,0.008,0.036
-1.043,-1.052,-0.009,1.048,-0.5175,-0.5305,-0.439,-0.424,-0.453,-0.3855,-0.2715,-0.3645,0.0685,0.0085,0.033
-1.0965,-1.08,0.0165,1.0885,-0.557,-0.5315,-0.4355,-0.421,-0.452,-0.3865,-0.2705,-0.3625,0.0675,-0.001,0.0315
-1.0825,-1.074,0.0085,1.0785,-0.5455,-0.533,-0.44,-0.4265,-0.461,-0.3905,-0.278,-0.3685,0.069,-0.0035,0.032
-1.0285,-1.044,-0.0155,1.0365,-0.507,-0.53,-0.444,-0.4305,-0.4655,-0.3965,-0.2835,-0.375,0.068,-0.0035,0.032
-1.02,-1.031,-0.011,1.026,-0.505,-0.521,-0.4495,-0.433,-0.4685,-0.401,-0.2875,-0.378,0.065,0.0255,0.0375
-1.055,-1.062,-0.007,1.0585,-0.524,-0.5345,-0.466,-0.448,-0.4825,-0.414,-0.2985,-0.3905,0.0645,0.0395,0.034
-1.038,-1.064,-0.026,1.0515,-0.506,-0.545,-0.466,-0.4465,-0.4795,-0.412,-0.2965,-0.391,0.062,0.018,0.0225
-0.9955,-1.027,-0.0315,1.0115,-0.482,-0.5295,-0.4535,-0.441,-0.468,-0.4005,-0.2845,-0.3805,0.06,0.0165,0.0185
-0.9845,-1.0295,-0.045,1.007,-0.47,-0.537,-0.4595,-0.4445,-0.4775,-0.411,-0.2885,-0.3875,0.059,0.0275,0.0245
-0.985,-1.037,-0.052,1.011,-0.4665,-0.5445,-0.463,-0.443,-0.486,-0.418,-0.2945,-0.3925,0.0565,0.0255,0.0295
-1.026,-1.032,-0.006,1.029,-0.51,-0.519,-0.451,-0.437,-0.4735,-0.405,-0.282,-0.3795,0.0565,0.0255,0.0215
-1.0185,-1.038,-0.0195,1.0285,-0.5,-0.5285,-0.464,-0.447,-0.4795,-0.414,-0.29,-0.3885,0.058,0.024,0.0185
-1.0595,-1.0695,-0.01,1.065,-0.525,-0.54,-0.465,-0.444,-0.4775,-0.4115,-0.29,-0.389,0.0565,0.018,0.0185
-1.07,-1.0895,-0.0195,1.0795,-0.5255,-0.5545,-0.4575,-0.4335,-0.463,-0.4005,-0.2835,-0.3815,0.056,0.014,0.019
-1.0215,-1.084,-0.0625,1.053,-0.48,-0.5735,-0.457,-0.4375,-0.4645,-0.4065,-0.2905,-0.392,0.0545,0.0075,0.0195
-0.9305,-1.0755,-0.145,1.003,-0.393,-0.6105,-0.4785,-0.4585,-0.4895,-0.431,-0.318,-0.4205,0.053,-0.002,0.015
-0.9245,-1.0685,-0.144,0.9965,-0.3905,-0.6065,-0.466,-0.443,-0.477,-0.42,-0.31,-0.414,0.0535,-0.0125,0.0185
-1.1125,-1.083,0.029,1.098,-0.571,-0.527,-0.3995,-0.376,-0.4115,-0.3535,-0.243,-0.353,0.0545,-0.024,0.023
-1.1665,-1.091,0.0755,1.129,-0.621,-0.508,-0.386,-0.3565,-0.396,-0.3395,-0.233,-0.343,0.0525,-0.029,0.023
-1.1235,-1.079,0.0445,1.1015,-0.5845,-0.517,-0.3975,-0.366,-0.404,-0.352,-0.2535,-0.3645,0.053,-0.024,0.017
-1.058,-1.0775,-0.02,1.068,-0.519,-0.5485,-0.4115,-0.3745,-0.4105,-0.3645,-0.275,-0.3915,0.053,-0.0205,0.008
-1.0325,-1.0955,-0.063,1.064,-0.485,-0.579,-0.405,-0.363,-0.405,-0.365,-0.29,-0.4135,0.048,-0.0205,-0.002
-1.072,-1.1035,-0.0315,1.088,-0.5205,-0.5675,-0.3845,-0.3355,-0.38,-0.3435,-0.285,-0.418,0.045,-0.0195,-0.014
-1.088,-1.1165,-0.0285,1.1025,-0.53,-0.5725,-0.3785,-0.3185,-0.3645,-0.33,-0.2875,-0.432,0.04,-0.019,-0.0285
-1.0935,-1.115,-0.0215,1.1045,-0.536,-0.5685,-0.363,-0.2935,-0.3415,-0.3075,-0.276,-0.4325,0.04,-0.022,-0.045
-1.1035,-1.1085,-0.005,1.1065,-0.5495,-0.5565,-0.353,-0.2725,-0.3185,-0.284,-0.2615,-0.433,0.043,-0.0025,-0.056
-1.1145,-1.1105,0.004,1.113,-0.5595,-0.5535,-0.3425,-0.253,-0.2935,-0.259,-0.25,-0.4395,0.0445,0.0255,-0.071
-1.079,-1.0655,0.0135,1.0725,-0.5465,-0.526,-0.3465,-0.2495,-0.2755,-0.2365,-0.231,-0.431,0.056,0.0255,-0.0825
-1.046,-1.0415,0.0045,1.044,-0.5255,-0.519,-0.353,-0.2575,-0.2725,-0.227,-0.2215,-0.429,0.0635,0.023,-0.082
-1.0355,-1.059,-0.024,1.0475,-0.506,-0.5415,-0.344,-0.2455,-0.256,-0.2055,-0.209,-0.427,0.068,0.014,-0.0945
-1.0245,-1.0585,-0.034,1.0415,-0.4955,-0.546,-0.349,-0.2435,-0.2385,-0.172,-0.1745,-0.4075,0.0865,0.014,-0.112
-1.008,-1.054,-0.046,1.0315,-0.481,-0.55,-0.357,-0.2565,-0.2255,-0.1395,-0.136,-0.3905,0.111,0.016,-0.121
-1.0855,-1.0505,0.035,1.0685,-0.5605,-0.508,-0.3215,-0.2035,-0.142,-0.05,-0.049,-0.334,0.144,0.0165,-0.133
-1.1075,-1.0535,0.054,1.081,-0.581,-0.5,-0.3235,-0.186,-0.0835,0.027,0.0265,-0.296,0.1845,0.0405,-0.1505
-1.0085,-1.057,-0.0485,1.033,-0.48,-0.5525,-0.37,-0.232,-0.0955,0.0405,0.0545,-0.2925,0.223,0.039,-0.1615
-0.993,-1.0395,-0.0465,1.0165,-0.4735,-0.543,-0.3705,-0.2265,-0.0585,0.095,0.1215,-0.253,0.258,0.0505,-0.1735
-0.946,-0.983,-0.037,0.9645,-0.455,-0.51,-0.3455,-0.19,0.028,0.1865,0.221,-0.187,0.3,0.061,-0.193
-0.886,-0.925,-0.039,0.9055,-0.4235,-0.482,-0.3325,-0.1685,0.1,0.2565,0.317,-0.1185,0.3485,0.0585,-0.206
-0.8935,-0.9155,-0.0225,0.905,-0.4355,-0.469,-0.3695,-0.211,0.1165,0.295,0.404,-0.0665,0.397,0.077,-0.208
-0.893,-0.918,-0.025,0.906,-0.434,-0.4715,-0.4125,-0.266,0.116,0.322,0.489,-0.0075,0.456,0.085,-0.206
-0.882,-0.8935,-0.0115,0.888,-0.4355,-0.4525,-0.443,-0.3225,0.1055,0.342,0.5785,0.0625,0.517,0.1195,-0.212
-0.8105,-0.855,-0.0445,0.833,-0.383,-0.4495,-0.5055,-0.413,0.0645,0.329,0.6555,0.1295,0.5775,0.159,-0.1955
-0.716,-0.813,-0.097,0.765,-0.3095,-0.455,-0.585,-0.5015,0.04,0.3265,0.7325,0.191,0.645,0.1895,-0.182
-0.703,-0.7685,-0.0655,0.736,-0.319,-0.417,-0.6585,-0.585,0.0635,0.3755,0.841,0.272,0.726,0.2475,-0.1855
-0.671,-0.734,-0.0635,0.703,-0.304,-0.399,-0.7505,-0.7,0.057,0.4015,0.934,0.346,0.8035,0.303,-0.1655
-0.581,-0.671,-0.09,0.6265,-0.2455,-0.3805,-0.823,-0.799,0.0435,0.4215,1.0295,0.432,0.8745,0.3305,-0.1505
-0.5265,-0.5865,-0.06,0.557,-0.2335,-0.323,-0.878,-0.875,0.051,0.4625,1.153,0.5475,0.953,0.3745,-0.133
-0.485,-0.504,-0.019,0.495,-0.2335,-0.2615,-0.9425,-0.9615,0.033,0.468,1.2515,0.6485,1.025,0.446,-0.0985
-0.4275,-0.436,-0.0085,0.432,-0.21,-0.2225,-1.015,-1.0535,-0.015,0.4215,1.2925,0.724,1.0775,0.493,-0.055
-0.406,-0.4055,0.0005,0.406,-0.2035,-0.2025,-1.1075,-1.178,-0.1215,0.321,1.2765,0.769,1.104,0.5395,0.016
-0.414,-0.394,0.0205,0.404,-0.2175,-0.1865,-1.2025,-1.327,-0.2545,0.192,1.229,0.803,1.1235,0.578,0.1
-0.403,-0.394,0.0095,0.3985,-0.2065,-0.192,-1.3065,-1.48,-0.4045,0.036,1.1615,0.835,1.136,0.587,0.201
-0.375,-0.3855,-0.011,0.3805,-0.1825,-0.1985,-1.4095,-1.6295,-0.5885,-0.1615,1.0665,0.8625,1.127,0.5965,0.3275
-0.3695,-0.3795,-0.01,0.375,-0.18,-0.195,-1.519,-1.7855,-0.777,-0.375,0.932,0.8765,1.1075,0.611,0.4555
-0.3635,-0.3875,-0.024,0.376,-0.17,-0.206,-1.6025,-1.911,-0.9785,-0.6095,0.7345,0.844,1.054,0.602,0.575
-0.331,-0.399,-0.068,0.365,-0.1315,-0.2335,-1.685,-2.04,-1.201,-0.8515,0.5005,0.784,0.9815,0.581,0.6915
-0.3415,-0.425,-0.0835,0.3835,-0.129,-0.2545,-1.7675,-2.168,-1.406,-1.0655,0.2975,0.7315,0.9145,0.552,0.8045
-0.397,-0.45,-0.053,0.424,-0.172,-0.2515,-1.828,-2.272,-1.593,-1.269,0.119,0.6875,0.8475,0.5265,0.909
-0.484,-0.477,0.007,0.4805,-0.2455,-0.235,-1.8685,-2.369,-1.8025,-1.4865,-0.066,0.6385,0.7675,0.513,1.007
-0.582,-0.516,0.066,0.5495,-0.324,-0.225,-1.873,-2.429,-2.0305,-1.7025,-0.276,0.554,0.659,0.4815,1.09
-0.6545,-0.5585,0.096,0.6065,-0.3755,-0.2315,-1.8725,-2.468,-2.2315,-1.8945,-0.4915,0.444,0.5435,0.4495,1.1515
-0.7065,-0.626,0.0805,0.6665,-0.3935,-0.273,-1.874,-2.493,-2.4025,-2.072,-0.705,0.318,0.4285,0.4025,1.2005
-0.7595,-0.705,0.0545,0.7325,-0.4075,-0.325,-1.8705,-2.5065,-2.5635,-2.235,-0.9,0.204,0.3285,0.374,1.2485
-0.818,-0.7705,0.0475,0.7945,-0.433,-0.3615,-1.8455,-2.498,-2.6825,-2.3575,-1.038,0.1245,0.25,0.348,1.298
-0.843,-0.8135,0.0295,0.8285,-0.4365,-0.392,-1.84,-2.497,-2.7395,-2.43,-1.133,0.065,0.197,0.295,1.328
-0.838,-0.827,0.0115,0.8325,-0.425,-0.408,-1.8095,-2.4535,-2.7,-2.41,-1.1685,0.023,0.16,0.2655,1.3095
-0.891,-0.828,0.063,0.8595,-0.4775,-0.382,-1.7135,-2.329,-2.5595,-2.287,-1.1425,-0.0075,0.1185,0.264,1.2585
-0.987,-0.8465,0.1405,0.917,-0.564,-0.353,-1.6255,-2.201,-2.4105,-2.149,-1.0955,-0.0345,0.0925,0.2675,1.197
-1.04,-0.8695,0.1705,0.955,-0.6055,-0.3495,-1.568,-2.101,-2.2855,-2.0325,-1.0575,-0.08,0.0785,0.264,1.1335
-1.0885,-0.8865,0.202,0.988,-0.6455,-0.3425,-1.514,-2.0035,-2.164,-1.9215,-1.0265,-0.137,0.056,0.2645,1.067
-1.106,-0.918,0.188,1.012,-0.6475,-0.365,-1.435,-1.8755,-2.0265,-1.8015,-0.984,-0.183,0.0345,0.2495,0.9885
-1.141,-0.957,0.1845,1.049,-0.663,-0.386,-1.3485,-1.744,-1.8735,-1.6665,-0.9215,-0.2045,0.025,0.2405,0.908
-1.1575,-0.969,0.1885,1.0635,-0.6735,-0.39,-1.2705,-1.6085,-1.713,-1.5235,-0.847,-0.2125,0.03,0.233,0.828
-1.106,-0.9595,0.147,1.033,-0.627,-0.406,-1.186,-1.454,-1.554,-1.389,-0.7795,-0.223,0.0375,0.2115,0.7495
-1.0645,-0.95,0.114,1.0075,-0.5895,-0.418,-1.113,-1.336,-1.4385,-1.2875,-0.7285,-0.238,0.0395,0.2,0.68
-1.0545,-0.955,0.099,1.005,-0.577,-0.428,-1.042,-1.237,-1.3505,-1.205,-0.693,-0.263,0.036,0.187,0.62
-1.0925,-0.995,0.0975,1.044,-0.5955,-0.4485,-0.967,-1.13,-1.2605,-1.1335,-0.678,-0.31,0.0125,0.16,0.5545
-1.119,-1.028,0.0905,1.074,-0.605,-0.4685,-0.8885,-1.0225,-1.1645,-1.057,-0.652,-0.3445,-0.0065,0.1355,0.4925
-1.12,-1.033,0.087,1.077,-0.6035,-0.473,-0.8075,-0.92,-1.0715,-0.977,-0.6135,-0.3615,-0.015,0.128,0.4365
-1.122,-1.012,0.11,1.0675,-0.616,-0.451,-0.745,-0.837,-0.9925,-0.9055,-0.5805,-0.3715,-0.025,0.136,0.3865
-1.134,-1.0215,0.1125,1.078,-0.6235,-0.4545,-0.703,-0.772,-0.927,-0.845,-0.55,-0.382,-0.0255,0.1385,0.3485
-1.118,-1.029,0.089,1.0735,-0.6035,-0.47,-0.673,-0.7265,-0.874,-0.801,-0.533,-0.4,-0.0265,0.125,0.3095
-1.106,-1.021,0.085,1.064,-0.596,-0.468,-0.639,-0.6835,-0.823,-0.7565,-0.513,-0.406,-0.0255,0.1115,0.2665
-1.103,-1.058,0.0455,1.0805,-0.5745,-0.506,-0.629,-0.663,-0.7975,-0.7365,-0.5105,-0.424,-0.0215,0.103,0.235
-1.0925,-1.0555,0.037,1.074,-0.565,-0.509,-0.608,-0.6385,-0.7625,-0.705,-0.494,-0.4255,-0.019,0.094,0.2175
-1.0595,-1.064,-0.0045,1.062,-0.528,-0.534,-0.6005,-0.6305,-0.751,-0.694,-0.496,-0.445,-0.018,0.0825,0.206
-1.106,-1.093,0.013,1.0995,-0.5595,-0.54,-0.5895,-0.614,-0.732,-0.677,-0.4895,-0.45,-0.015,0.082,0.1915
-1.1755,-1.096,0.0795,1.136,-0.628,-0.508,-0.563,-0.5775,-0.6895,-0.6375,-0.461,-0.434,-0.011,0.0905,0.174
-1.141,-1.1105,0.0305,1.126,-0.586,-0.54,-0.57,-0.5775,-0.6885,-0.6415,-0.4735,-0.459,-0.0095,0.0785,0.152
-1.1135,-1.085,0.0285,1.1,-0.5715,-0.5285,-0.545,-0.551,-0.6595,-0.614,-0.455,-0.45,-0.006,0.0685,0.1305
-1.077,-1.037,0.04,1.057,-0.5585,-0.4985,-0.509,-0.514,-0.6205,-0.577,-0.425,-0.4285,0.0,0.066,0.12
-1.052,-1.033,0.019,1.0425,-0.5355,-0.507,-0.498,-0.4965,-0.6025,-0.559,-0.4155,-0.4265,0.008,0.055,0.1095
-1.073,-1.0545,0.018,1.064,-0.5455,-0.5185,-0.486,-0.48,-0.582,-0.539,-0.402,-0.4225,0.013,0.046,0.0975
-1.074,-1.0675,0.0065,1.071,-0.5405,-0.5305,-0.4765,-0.4665,-0.5655,-0.5235,-0.3955,-0.422,0.017,0.035,0.0895
-1.0715,-1.095,-0.0235,1.0835,-0.5245,-0.559,-0.4725,-0.454,-0.5545,-0.5155,-0.3945,-0.427,0.0215,0.0225,0.0805
-1.0935,-1.127,-0.0335,1.11,-0.53,-0.58,-0.4595,-0.436,-0.5365,-0.5,-0.385,-0.4235,0.0245,-0.0015,0.07
-1.088,-1.1165,-0.0285,1.1025,-0.53,-0.5725,-0.4415,-0.4135,-0.5135,-0.4765,-0.369,-0.4135,0.026,-0.0185,0.063
-1.069,-1.101,-0.032,1.0855,-0.519,-0.5665,-0.4325,-0.4015,-0.5025,-0.464,-0.362,-0.4135,0.026,-0.013,0.0595
-1.074,-1.11,-0.036,1.0925,-0.519,-0.573,-0.4335,-0.4,-0.5035,-0.464,-0.3675,-0.421,0.029,-0.015,0.061
-1.0765,-1.112,-0.036,1.0945,-0.5205,-0.574,-0.438,-0.4055,-0.5045,-0.4655,-0.3705,-0.427,0.0285,-0.0055,0.0615
-1.0535,-1.1075,-0.054,1.081,-0.5,-0.581,-0.435,-0.4105,-0.5075,-0.466,-0.373,-0.431,0.0245,-0.0015,0.056
-1.074,-1.1115,-0.0375,1.093,-0.5185,-0.5745,-0.413,-0.3895,-0.4895,-0.4505,-0.36,-0.4175,0.022,-0.0185,0.054
-1.061,-1.092,-0.031,1.0765,-0.515,-0.5615,-0.4135,-0.388,-0.484,-0.4485,-0.361,-0.4185,0.022,-0.022,0.0535
-1.027,-1.079,-0.052,1.0535,-0.488,-0.5655,-0.429,-0.407,-0.498,-0.4625,-0.378,-0.439,0.019,0.0,0.054
-1.0195,-1.0695,-0.0495,1.045,-0.485,-0.56,-0.421,-0.4005,-0.49,-0.455,-0.372,-0.437,0.0165,0.013,0.043
-1.032,-1.082,-0.05,1.0575,-0.4915,-0.566,-0.424,-0.401,-0.494,-0.46,-0.3785,-0.444,0.0145,0.0025,0.033
-1.08,-1.1175,-0.0375,1.099,-0.5215,-0.5775,-0.4325,-0.3995,-0.4975,-0.4655,-0.386,-0.453,0.011,-0.003,0.031
-1.084,-1.112,-0.028,1.098,-0.5285,-0.5695,-0.4255,-0.3895,-0.4905,-0.4605,-0.382,-0.4495,0.0125,-0.0075,0.0285
-1.0805,-1.087,-0.006,1.084,-0.5375,-0.5465,-0.418,-0.3795,-0.48,-0.453,-0.3755,-0.444,0.013,0.0015,0.035
-1.054,-1.066,-0.012,1.06,-0.521,-0.539,-0.4195,-0.374,-0.474,-0.447,-0.373,-0.4435,0.0105,0.009,0.0375
-0.9805,-1.0735,-0.0925,1.0275,-0.444,-0.583,-0.4345,-0.3915,-0.4935,-0.467,-0.3955,-0.468,0.008,0.0005,0.0335
-0.882,-1.102,-0.22,0.9925,-0.3315,-0.661,-0.4735,-0.43,-0.5295,-0.5065,-0.4355,-0.5125,0.0075,0.002,0.029
-0.9725,-1.1195,-0.1465,1.046,-0.413,-0.633,-0.456,-0.417,-0.51,-0.487,-0.416,-0.4965,0.0075,0.0085,0.026
-1.193,-1.1035,0.09,1.1485,-0.6415,-0.507,-0.3765,-0.3395,-0.435,-0.4065,-0.3385,-0.419,0.007,0.0045,0.0225
-1.2035,-1.0955,0.1085,1.15,-0.656,-0.4935,-0.353,-0.3175,-0.415,-0.3875,-0.32,-0.402,0.0055,-0.0115,0.023
-1.123,-1.1165,0.0065,1.12,-0.565,-0.555,-0.3785,-0.3425,-0.4395,-0.411,-0.3435,-0.4285,0.005,-0.017,0.028
-1.0905,-1.121,-0.0305,1.106,-0.53,-0.576,-0.392,-0.346,-0.4535,-0.4225,-0.3555,-0.4425,0.0035,-0.015,0.031
-1.0675,-1.109,-0.0415,1.0885,-0.513,-0.5755,-0.391,-0.3475,-0.4505,-0.422,-0.355,-0.447,0.0025,-0.0165,0.0325
-1.0535,-1.1085,-0.0555,1.0815,-0.4995,-0.582,-0.3905,-0.348,-0.4425,-0.4165,-0.3495,-0.443,0.004,-0.0195,0.0305
-1.0675,-1.115,-0.0475,1.0915,-0.51,-0.5815,-0.3825,-0.336,-0.4365,-0.4105,-0.3445,-0.4395,0.003,-0.0265,0.031
-1.083,-1.109,-0.026,1.0965,-0.5285,-0.5675,-0.3835,-0.336,-0.4355,-0.4075,-0.343,-0.442,0.0015,-0.0175,0.031
-1.0825,-1.108,-0.025,1.0955,-0.529,-0.5665,-0.388,-0.3415,-0.4415,-0.413,-0.3485,-0.4475,0.0005,-0.018,0.027
-1.088,-1.118,-0.03,1.1035,-0.529,-0.574,-0.388,-0.345,-0.444,-0.415,-0.3545,-0.453,-0.001,-0.028,0.0265
-1.0865,-1.1265,-0.0395,1.1065,-0.5235,-0.583,-0.398,-0.3505,-0.446,-0.4225,-0.3665,-0.4635,-0.003,-0.026,0.018
-1.0855,-1.121,-0.0355,1.1035,-0.5255,-0.578,-0.3945,-0.349,-0.449,-0.427,-0.376,-0.468,-0.0045,-0.016,0.016
-1.075,-1.0965,-0.0215,1.086,-0.527,-0.559,-0.389,-0.3495,-0.453,-0.427,-0.3795,-0.4645,-0.004,0.003,0.021
-1.0685,-1.0935,-0.025,1.081,-0.522,-0.559,-0.389,-0.3505,-0.453,-0.4265,-0.38,-0.4645,-0.004,-0.001,0.019
-1.1205,-1.136,-0.015,1.1285,-0.553,-0.5755,-0.387,-0.352,-0.4505,-0.4275,-0.3815,-0.4685,0.0,-0.0035,0.021
-1.183,-1.18,0.003,1.1815,-0.593,-0.5885,-0.397,-0.3615,-0.461,-0.4385,-0.3925,-0.4805,0.004,-0.0105,0.0175
-1.168,-1.182,-0.0135,1.175,-0.5775,-0.5975,-0.411,-0.371,-0.472,-0.4495,-0.4025,-0.4935,0.002,-0.025,0.0105
-1.1045,-1.142,-0.0375,1.1235,-0.5335,-0.59,-0.411,-0.371,-0.468,-0.4475,-0.3995,-0.494,0.0005,-0.01,0.01
-1.029,-1.0705,-0.0415,1.05,-0.494,-0.556,-0.386,-0.3495,-0.446,-0.424,-0.378,-0.473,0.001,-0.008,0.015
-1.0125,-1.0525,-0.0395,1.033,-0.487,-0.546,-0.367,-0.3285,-0.4295,-0.405,-0.3605,-0.4545,0.001,-0.008,0.015
-1.075,-1.097,-0.022,1.086,-0.5265,-0.5595,-0.37,-0.3275,-0.43,-0.405,-0.3595,-0.454,0.0025,-0.013,0.0135
-1.101,-1.109,-0.008,1.1055,-0.5465,-0.5585,-0.3635,-0.317,-0.42,-0.3975,-0.352,-0.4485,0.004,-0.011,0.019
-1.093,-1.1065,-0.014,1.1,-0.54,-0.5605,-0.3445,-0.304,-0.4075,-0.383,-0.337,-0.4355,0.002,-0.02,0.018
-1.088,-1.125,-0.037,1.1065,-0.526,-0.581,-0.348,-0.3115,-0.4175,-0.39,-0.344,-0.441,-0.0025,-0.0495,0.0145
-1.046,-1.1325,-0.0865,1.0895,-0.48,-0.6095,-0.3675,-0.3255,-0.432,-0.406,-0.3575,-0.457,-0.0025,-0.0445,0.008
-1.038,-1.111,-0.073,1.0745,-0.4825,-0.592,-0.363,-0.324,-0.424,-0.3975,-0.35,-0.45,-0.001,-0.038,0.011
-1.074,-1.102,-0.028,1.088,-0.523,-0.565,-0.3555,-0.3205,-0.416,-0.392,-0.3425,-0.442,-0.005,-0.0405,0.016
-1.1045,-1.108,-0.0035,1.1065,-0.551,-0.5555,-0.343,-0.314,-0.407,-0.3825,-0.3335,-0.434,-0.0075,-0.0435,0.01
-1.111,-1.108,0.0025,1.11,-0.557,-0.553,-0.3435,-0.322,-0.413,-0.3835,-0.337,-0.4355,-0.008,-0.041,0.0135
-1.057,-1.1065,-0.0495,1.082,-0.504,-0.578,-0.365,-0.345,-0.4365,-0.41,-0.363,-0.4595,-0.01,-0.03,0.0125
-1.0395,-1.1055,-0.0665,1.0725,-0.4865,-0.586,-0.373,-0.344,-0.438,-0.4155,-0.37,-0.4675,-0.011,-0.035,0.0095
-1.055,-1.1075,-0.053,1.0815,-0.5015,-0.58,-0.377,-0.336,-0.435,-0.4115,-0.367,-0.466,-0.013,-0.0395,0.008
-1.0465,-1.108,-0.0615,1.0775,-0.4925,-0.5845,-0.384,-0.344,-0.44,-0.4185,-0.374,-0.473,-0.0125,-0.0275,0.0065
-1.0415,-1.1095,-0.068,1.076,-0.487,-0.589,-0.3935,-0.3455,-0.44,-0.4205,-0.3775,-0.477,-0.0125,-0.0225,0.001
-1.049,-1.116,-0.067,1.083,-0.4915,-0.5915,-0.3915,-0.339,-0.4355,-0.4165,-0.377,-0.4765,-0.0135,-0.0195,-0.0025
-1.0685,-1.1215,-0.053,1.095,-0.508,-0.587,-0.385,-0.339,-0.436,-0.4175,-0.3805,-0.477,-0.012,-0.0135,0.0015
-1.072,-1.111,-0.039,1.0915,-0.5165,-0.575,-0.376,-0.3325,-0.4315,-0.4155,-0.38,-0.4765,-0.013,-0.012,0.0045
-1.084,-1.112,-0.028,1.0985,-0.5285,-0.57,-0.367,-0.326,-0.4265,-0.4135,-0.3795,-0.4765,-0.0135,-0.0195,0.009
-1.109,-1.124,-0.015,1.1165,-0.5475,-0.5695,-0.3615,-0.3195,-0.4215,-0.408,-0.376,-0.4725,-0.0105,-0.017,0.0085
-1.086,-1.1155,-0.03,1.101,-0.5285,-0.573,-0.3735,-0.3295,-0.4275,-0.414,-0.3825,-0.48,-0.0085,-0.011,0.006
-1.0585,-1.1015,-0.043,1.0805,-0.5085,-0.572,-0.377,-0.333,-0.432,-0.4165,-0.385,-0.4845,-0.008,-0.0135,0.0075
-1.06,-1.1135,-0.054,1.087,-0.5035,-0.5835,-0.368,-0.3205,-0.4215,-0.402,-0.3715,-0.4695,-0.006,-0.025,0.008
-1.0805,-1.156,-0.0755,1.1185,-0.503,-0.6155,-0.372,-0.328,-0.428,-0.404,-0.3715,-0.4705,-0.0065,-0.046,0.0055
-1.1175,-1.187,-0.0695,1.1525,-0.524,-0.628,-0.3645,-0.3215,-0.4275,-0.406,-0.3735,-0.476,-0.0095,-0.0525,0.0055
-1.118,-1.1765,-0.0585,1.1475,-0.53,-0.6175,-0.368,-0.322,-0.427,-0.407,-0.375,-0.4775,-0.009,-0.049,0.005
-1.038,-1.0935,-0.0555,1.066,-0.4915,-0.5745,-0.3655,-0.3195,-0.4155,-0.393,-0.3605,-0.459,-0.01,-0.045,0.008
-0.9935,-1.0655,-0.072,1.0295,-0.461,-0.5685,-0.365,-0.3165,-0.4075,-0.3865,-0.353,-0.451,-0.0105,-0.0525,0.009
-1.0445,-1.107,-0.0625,1.076,-0.4915,-0.5845,-0.3665,-0.323,-0.4185,-0.3945,-0.3625,-0.462,-0.0095,-0.055,0.006
-1.0905,-1.1225,-0.032,1.107,-0.5295,-0.5775,-0.36,-0.3155,-0.414,-0.393,-0.3615,-0.4585,-0.009,-0.0425,0.0085
-1.085,-1.1235,-0.0385,1.1045,-0.5235,-0.581,-0.3635,-0.3135,-0.4125,-0.395,-0.3615,-0.461,-0.012,-0.0365,0.0095
-1.0375,-1.094,-0.0565,1.066,-0.491,-0.575,-0.361,-0.312,-0.4125,-0.3935,-0.3575,-0.458,-0.012,-0.0355,0.012
-1.0235,-1.0885,-0.065,1.0565,-0.4795,-0.577,-0.3665,-0.317,-0.417,-0.3985,-0.3635,-0.461,-0.0125,-0.034,0.0085
-1.0455,-1.0985,-0.053,1.0725,-0.4965,-0.576,-0.368,-0.315,-0.4145,-0.3995,-0.37,-0.467,-0.0155,-0.031,-0.0035
-1.0575,-1.097,-0.0395,1.0775,-0.5095,-0.568,-0.363,-0.3085,-0.4135,-0.398,-0.3685,-0.4675,-0.013,-0.027,-0.0035
-1.0745,-1.1015,-0.0265,1.088,-0.5245,-0.564,-0.362,-0.315,-0.4175,-0.4005,-0.37,-0.47,-0.016,-0.0265,0.0035
-1.062,-1.09,-0.0285,1.076,-0.517,-0.559,-0.3615,-0.3165,-0.4135,-0.3995,-0.369,-0.469,-0.0165,-0.0265,0.0005
-1.0525,-1.078,-0.026,1.0655,-0.5135,-0.552,-0.3525,-0.308,-0.4095,-0.396,-0.3645,-0.465,-0.017,-0.0205,-0.002
-1.0325,-1.0745,-0.0415,1.0535,-0.4955,-0.558,-0.354,-0.309,-0.412,-0.3975,-0.368,-0.4685,-0.0195,-0.021,0.0025
-1.047,-1.1,-0.053,1.074,-0.4975,-0.5765,-0.3625,-0.314,-0.4155,-0.401,-0.374,-0.474,-0.016,-0.025,0.0035
-1.069,-1.1225,-0.0535,1.096,-0.508,-0.588,-0.3665,-0.3195,-0.4245,-0.4075,-0.379,-0.481,-0.017,-0.021,0.001
-1.0705,-1.1235,-0.0525,1.097,-0.5095,-0.588,-0.367,-0.323,-0.4315,-0.4105,-0.3805,-0.4865,-0.018,-0.024,-0.0055
-1.041,-1.0995,-0.059,1.0705,-0.491,-0.579,-0.358,-0.3155,-0.4235,-0.403,-0.373,-0.482,-0.016,-0.033,-0.0065
-0.9995,-1.071,-0.0715,1.0355,-0.4645,-0.5715,-0.348,-0.3015,-0.4085,-0.3895,-0.3595,-0.469,-0.015,-0.041,-0.004
-1.119,-1.0945,0.0245,1.107,-0.572,-0.5345,-0.3065,-0.2635,-0.368,-0.348,-0.3215,-0.432,-0.016,-0.059,-0.0065
-1.0975,-1.1015,-0.004,1.0995,-0.547,-0.5525,-0.3115,-0.2695,-0.3785,-0.3585,-0.3345,-0.4425,-0.016,-0.06,-0.005
-1.0315,-1.1135,-0.082,1.073,-0.475,-0.598,-0.358,-0.3125,-0.4205,-0.401,-0.3785,-0.4875,-0.0165,-0.043,-0.0035
-1.0205,-1.1145,-0.094,1.068,-0.4635,-0.604,-0.367,-0.3215,-0.422,-0.4045,-0.3845,-0.494,-0.0145,-0.0435,-0.0035
-0.984,-1.108,-0.1245,1.0465,-0.43,-0.6165,-0.369,-0.3205,-0.424,-0.408,-0.39,-0.499,-0.0135,-0.042,-0.0035
-1.0235,-1.121,-0.097,1.0725,-0.4635,-0.609,-0.361,-0.312,-0.4145,-0.3985,-0.383,-0.492,-0.015,-0.041,-0.004
-1.045,-1.103,-0.058,1.0745,-0.4935,-0.5805,-0.34,-0.29,-0.3915,-0.3765,-0.362,-0.4705,-0.016,-0.051,-0.004
-1.099,-1.1025,-0.0035,1.101,-0.548,-0.553,-0.3275,-0.278,-0.382,-0.367,-0.3515,-0.463,-0.0215,-0.0555,-0.004
-1.125,-1.1,0.0255,1.113,-0.5755,-0.5375,-0.324,-0.28,-0.386,-0.3715,-0.357,-0.4665,-0.023,-0.0355,-0.0035
-1.12,-1.1115,0.009,1.116,-0.5645,-0.551,-0.3325,-0.283,-0.395,-0.3815,-0.3675,-0.476,-0.024,-0.0225,-0.0045
-1.137,-1.1445,-0.0075,1.141,-0.565,-0.576,-0.3505,-0.3005,-0.406,-0.3925,-0.3765,-0.488,-0.0245,-0.0285,-0.0085
-1.083,-1.125,-0.042,1.1045,-0.5205,-0.5835,-0.3575,-0.309,-0.412,-0.3995,-0.384,-0.495,-0.023,-0.022,-0.0065
-1.0225,-1.0945,-0.0725,1.0585,-0.4755,-0.5835,-0.357,-0.3065,-0.416,-0.404,-0.387,-0.498,-0.024,-0.0245,-0.0045
-1.073,-1.0925,-0.02,1.083,-0.5265,-0.556,-0.334,-0.289,-0.3965,-0.3835,-0.3645,-0.478,-0.025,-0.0375,-0.0035
-1.061,-1.079,-0.0185,1.07,-0.5215,-0.5485,-0.3295,-0.2825,-0.3895,-0.379,-0.3595,-0.4745,-0.027,-0.035,-0.004
-1.021,-1.0605,-0.039,1.041,-0.491,-0.5495,-0.3405,-0.294,-0.399,-0.3885,-0.3675,-0.483,-0.0255,-0.026,-0.008
-1.0705,-1.077,-0.007,1.074,-0.532,-0.542,-0.3425,-0.2915,-0.394,-0.3825,-0.366,-0.481,-0.025,-0.0185,-0.0115
-1.116,-1.1075,0.0085,1.112,-0.5625,-0.5495,-0.331,-0.2805,-0.3845,-0.374,-0.3615,-0.4785,-0.0295,-0.0235,-0.0115
-1.091,-1.1055,-0.0145,1.0985,-0.5385,-0.56,-0.325,-0.2785,-0.38,-0.369,-0.359,-0.476,-0.03,-0.037,-0.011
-1.0435,-1.1035,-0.0605,1.0735,-0.492,-0.582,-0.3355,-0.289,-0.3905,-0.38,-0.3715,-0.49,-0.031,-0.046,-0.011
-1.0615,-1.127,-0.0655,1.0945,-0.4985,-0.596,-0.3345,-0.2905,-0.394,-0.3815,-0.374,-0.4925,-0.0325,-0.049,-0.014
-1.073,-1.1345,-0.061,1.104,-0.5065,-0.5975,-0.3445,-0.296,-0.3995,-0.3845,-0.3795,-0.497,-0.0315,-0.044,-0.0105
-1.092,-1.1195,-0.028,1.106,-0.532,-0.5735,-0.3385,-0.2885,-0.3945,-0.378,-0.375,-0.4935,-0.0335,-0.0455,-0.0085
-1.1175,-1.105,0.012,1.1115,-0.565,-0.5465,-0.328,-0.273,-0.375,-0.359,-0.3565,-0.4725,-0.031,-0.041,-0.0125
-1.0945,-1.1035,-0.0085,1.0995,-0.543,-0.556,-0.3225,-0.2655,-0.3645,-0.35,-0.3505,-0.467,-0.031,-0.05,-0.012
-1.0765,-1.103,-0.026,1.09,-0.5255,-0.5645,-0.311,-0.2535,-0.361,-0.3465,-0.348,-0.466,-0.034,-0.073,-0.018
-1.1015,-1.1045,-0.003,1.1035,-0.5495,-0.554,-0.315,-0.254,-0.3675,-0.358,-0.357,-0.4735,-0.0355,-0.054,-0.019
-1.1385,-1.131,0.0075,1.135,-0.5735,-0.5615,-0.322,-0.2575,-0.375,-0.3685,-0.369,-0.486,-0.035,-0.0395,-0.0145
-1.1545,-1.15,0.0045,1.1525,-0.58,-0.573,-0.324,-0.258,-0.3765,-0.3705,-0.3725,-0.4885,-0.033,-0.0435,-0.0165
-1.1505,-1.1525,-0.0025,1.152,-0.5745,-0.5775,-0.3355,-0.272,-0.387,-0.3825,-0.3825,-0.498,-0.0325,-0.041,-0.02
-1.1215,-1.1455,-0.024,1.134,-0.549,-0.585,-0.347,-0.2835,-0.3965,-0.395,-0.395,-0.5115,-0.033,-0.0475,-0.021
-1.1485,-1.1825,-0.034,1.166,-0.5575,-0.608,-0.352,-0.2995,-0.406,-0.402,-0.4015,-0.515,-0.032,-0.058,-0.019
-1.171,-1.2235,-0.052,1.1975,-0.5595,-0.638,-0.3655,-0.324,-0.4215,-0.4145,-0.4105,-0.5215,-0.0315,-0.0515,-0.009
-1.144,-1.194,-0.05,1.169,-0.547,-0.622,-0.363,-0.323,-0.4225,-0.4145,-0.413,-0.5275,-0.035,-0.0395,-0.0135
-1.1285,-1.1355,-0.007,1.1325,-0.561,-0.5715,-0.334,-0.295,-0.3925,-0.3865,-0.39,-0.504,-0.0335,-0.0355,-0.0205
-1.0625,-1.074,-0.0115,1.0685,-0.526,-0.5425,-0.3105,-0.2685,-0.364,-0.361,-0.3665,-0.4815,-0.0315,-0.0255,-0.018
-1.034,-1.064,-0.03,1.049,-0.502,-0.547,-0.317,-0.2645,-0.366,-0.361,-0.367,-0.4865,-0.0315,-0.0315,-0.017
-1.0795,-1.096,-0.0165,1.088,-0.532,-0.556,-0.335,-0.2705,-0.375,-0.3685,-0.373,-0.4945,-0.0285,-0.0445,-0.011
-1.0955,-1.1385,-0.043,1.117,-0.5265,-0.5905,-0.3435,-0.2825,-0.3825,-0.376,-0.382,-0.506,-0.031,-0.052,-0.0125
-1.0575,-1.144,-0.0865,1.101,-0.4855,-0.6155,-0.346,-0.2845,-0.381,-0.376,-0.386,-0.5105,-0.0315,-0.063,-0.0155
-1.079,-1.1245,-0.0455,1.102,-0.517,-0.585,-0.33,-0.262,-0.3625,-0.3595,-0.368,-0.493,-0.031,-0.058,-0.0125
-1.149,-1.1375,0.0115,1.1435,-0.5805,-0.563,-0.309,-0.243,-0.3475,-0.3455,-0.3545,-0.483,-0.0345,-0.0405,-0.0145
-1.0835,-1.1275,-0.044,1.1055,-0.52,-0.5855,-0.3215,-0.258,-0.3605,-0.361,-0.37,-0.5,-0.0365,-0.045,-0.017
-1.0155,-1.111,-0.0955,1.0635,-0.4605,-0.603,-0.3295,-0.271,-0.375,-0.3735,-0.3805,-0.51,-0.0355,-0.0585,-0.013
-0.957,-1.114,-0.1565,1.036,-0.4005,-0.6355,-0.351,-0.297,-0.405,-0.402,-0.4105,-0.5395,-0.0365,-0.0565,-0.014
-0.9445,-1.121,-0.177,1.033,-0.384,-0.649,-0.375,-0.317,-0.4245,-0.421,-0.4325,-0.563,-0.038,-0.0525,-0.018
-1.1655,-1.135,0.03,1.1505,-0.598,-0.5525,-0.316,-0.258,-0.367,-0.36,-0.373,-0.502,-0.039,-0.052,-0.018
-1.2665,-1.1505,0.1165,1.209,-0.692,-0.517,-0.2955,-0.2365,-0.3445,-0.3385,-0.3515,-0.4765,-0.0385,-0.054,-0.0135
-1.2095,-1.1685,0.041,1.189,-0.6255,-0.5635,-0.3325,-0.2645,-0.369,-0.3685,-0.385,-0.511,-0.0395,-0.057,-0.0185
-1.1635,-1.1565,0.007,1.1605,-0.5855,-0.5745,-0.3305,-0.2585,-0.3675,-0.3705,-0.389,-0.516,-0.042,-0.064,-0.0195
-1.1145,-1.129,-0.0145,1.122,-0.55,-0.5715,-0.3265,-0.251,-0.359,-0.3635,-0.3835,-0.5105,-0.0405,-0.0605,-0.016
-1.1265,-1.1265,0.0,1.1265,-0.5635,-0.5635,-0.3355,-0.2615,-0.367,-0.371,-0.3915,-0.5165,-0.0415,-0.0315,-0.025
-1.1525,-1.1405,0.0125,1.147,-0.583,-0.564,-0.338,-0.2665,-0.3725,-0.3765,-0.3965,-0.523,-0.0445,-0.018,-0.021
-1.136,-1.1485,-0.013,1.1425,-0.562,-0.5805,-0.341,-0.27,-0.374,-0.3805,-0.401,-0.5295,-0.0485,-0.026,-0.018
-1.114,-1.1465,-0.0325,1.1305,-0.541,-0.5895,-0.3425,-0.274,-0.3745,-0.3825,-0.4075,-0.534,-0.0495,-0.0245,-0.024
-1.125,-1.1395,-0.0145,1.1325,-0.5555,-0.577,-0.3335,-0.2615,-0.3655,-0.3765,-0.402,-0.5285,-0.0465,-0.0255,-0.026
-1.146,-1.14,0.006,1.143,-0.5765,-0.567,-0.3205,-0.255,-0.362,-0.3675,-0.393,-0.518,-0.048,-0.031,-0.0205
-1.168,-1.147,0.021,1.158,-0.595,-0.563,-0.3125,-0.2485,-0.3535,-0.357,-0.387,-0.511,-0.047,-0.0435,-0.018
-1.141,-1.139,0.002,1.14,-0.572,-0.5685,-0.3095,-0.2385,-0.3465,-0.353,-0.3855,-0.5085,-0.045,-0.062,-0.0215
-1.1205,-1.1385,-0.018,1.13,-0.5515,-0.578,-0.3075,-0.2395,-0.3455,-0.349,-0.3845,-0.51,-0.047,-0.064,-0.023
-1.138,-1.151,-0.013,1.145,-0.5625,-0.5825,-0.3055,-0.236,-0.3435,-0.349,-0.3865,-0.513,-0.048,-0.0545,-0.0195
-1.15,-1.19,-0.04,1.17,-0.555,-0.6155,-0.3205,-0.247,-0.354,-0.3615,-0.399,-0.5265,-0.0465,-0.0685,-0.023
-1.1155,-1.218,-0.1025,1.167,-0.5065,-0.6605,-0.3575,-0.2835,-0.386,-0.394,-0.4335,-0.563,-0.0465,-0.0695,-0.0305
-1.1015,-1.186,-0.0845,1.144,-0.5085,-0.6355,-0.362,-0.2835,-0.384,-0.3925,-0.4325,-0.56,-0.046,-0.0515,-0.0215
-1.1375,-1.17,-0.032,1.154,-0.553,-0.601,-0.3355,-0.2555,-0.3505,-0.3605,-0.3975,-0.529,-0.044,-0.0545,-0.0215
-1.166,-1.1735,-0.0075,1.17,-0.5795,-0.5905,-0.3085,-0.2335,-0.3315,-0.344,-0.384,-0.5175,-0.043,-0.0605,-0.025
-1.1635,-1.152,0.012,1.158,-0.588,-0.57,-0.3045,-0.23,-0.3295,-0.3405,-0.3825,-0.514,-0.042,-0.0605,-0.025
-1.125,-1.125,0.0,1.1255,-0.5625,-0.5625,-0.3105,-0.235,-0.3385,-0.3465,-0.386,-0.517,-0.046,-0.046,-0.0275
-1.0615,-1.1155,-0.0545,1.0885,-0.504,-0.585,-0.319,-0.2435,-0.35,-0.361,-0.402,-0.5335,-0.048,-0.041,-0.028
-1.0665,-1.1245,-0.058,1.0955,-0.5045,-0.591,-0.3245,-0.2525,-0.354,-0.3685,-0.4125,-0.545,-0.05,-0.0465,-0.033
-1.1315,-1.1235,0.008,1.1275,-0.57,-0.5575,-0.312,-0.2385,-0.342,-0.358,-0.404,-0.534,-0.053,-0.0395,-0.0305
-1.1975,-1.1295,0.068,1.164,-0.6335,-0.5305,-0.296,-0.2195,-0.324,-0.343,-0.3895,-0.5185,-0.051,-0.033,-0.032
-1.2745,-1.1395,0.135,1.207,-0.705,-0.502,-0.2785,-0.2045,-0.3045,-0.323,-0.37,-0.5025,-0.0505,-0.0365,-0.033
-1.1925,-1.1365,0.0555,1.165,-0.6245,-0.5405,-0.3015,-0.2285,-0.3315,-0.348,-0.3955,-0.5285,-0.051,-0.043,-0.031
-1.078,-1.1205,-0.042,1.0995,-0.518,-0.5815,-0.3305,-0.256,-0.361,-0.377,-0.425,-0.559,-0.052,-0.036,-0.0375
-1.098,-1.121,-0.023,1.11,-0.538,-0.572,-0.339,-0.2575,-0.362,-0.3755,-0.427,-0.563,-0.053,-0.0235,-0.0365
-1.1595,-1.1725,-0.013,1.166,-0.5735,-0.5925,-0.3305,-0.257,-0.36,-0.373,-0.4265,-0.5645,-0.0515,-0.0345,-0.0345
-1.201,-1.197,0.004,1.1995,-0.6025,-0.5965,-0.3145,-0.241,-0.339,-0.3565,-0.412,-0.553,-0.0485,-0.048,-0.0355
-1.1915,-1.195,-0.0035,1.1935,-0.5945,-0.599,-0.317,-0.2295,-0.328,-0.348,-0.4095,-0.548,-0.0485,-0.043,-0.0335
-1.1565,-1.1815,-0.025,1.1695,-0.566,-0.6035,-0.307,-0.228,-0.329,-0.3445,-0.41,-0.544,-0.052,-0.047,-0.0345
-1.131,-1.187,-0.0565,1.1595,-0.5375,-0.6215,-0.317,-0.2385,-0.341,-0.357,-0.4245,-0.557,-0.055,-0.0605,-0.036
-1.1545,-1.202,-0.047,1.178,-0.554,-0.6245,-0.3175,-0.2325,-0.335,-0.353,-0.4235,-0.5575,-0.0555,-0.07,-0.0365
-1.19,-1.1955,-0.0055,1.193,-0.5925,-0.6005,-0.291,-0.208,-0.312,-0.331,-0.402,-0.54,-0.058,-0.0705,-0.038
-1.147,-1.18,-0.033,1.1635,-0.557,-0.6065,-0.2965,-0.2065,-0.312,-0.334,-0.406,-0.544,-0.058,-0.067,-0.035
-1.123,-1.1555,-0.032,1.1395,-0.546,-0.5935,-0.298,-0.2105,-0.3125,-0.3335,-0.405,-0.542,-0.0595,-0.0595,-0.033
-1.127,-1.1575,-0.03,1.1425,-0.549,-0.5935,-0.297,-0.214,-0.316,-0.3375,-0.4095,-0.546,-0.064,-0.058,-0.0365
-1.1285,-1.164,-0.0355,1.1465,-0.5465,-0.6,-0.293,-0.2025,-0.3075,-0.332,-0.409,-0.5455,-0.066,-0.0675,-0.041
-1.161,-1.178,-0.017,1.17,-0.5725,-0.5975,-0.293,-0.2,-0.3065,-0.332,-0.411,-0.5495,-0.069,-0.059,-0.046
-1.1695,-1.165,0.0045,1.1675,-0.587,-0.5805,-0.2925,-0.2035,-0.3045,-0.3325,-0.4125,-0.5515,-0.0705,-0.039,-0.0455
-1.1915,-1.1525,0.039,1.1725,-0.6155,-0.557,-0.279,-0.197,-0.295,-0.324,-0.4065,-0.5445,-0.073,-0.0375,-0.0435
-1.2255,-1.1895,0.0365,1.2075,-0.631,-0.5765,-0.288,-0.2095,-0.3055,-0.339,-0.422,-0.5585,-0.0755,-0.0415,-0.0435
-1.2215,-1.2045,0.017,1.2135,-0.6195,-0.594,-0.2975,-0.2195,-0.3125,-0.3495,-0.4345,-0.569,-0.077,-0.0445,-0.046
-1.2055,-1.189,0.0165,1.1975,-0.611,-0.586,-0.295,-0.22,-0.309,-0.347,-0.4365,-0.5695,-0.082,-0.0445,-0.047
-1.207,-1.1675,0.0395,1.1875,-0.6235,-0.564,-0.2895,-0.207,-0.2965,-0.335,-0.426,-0.56,-0.084,-0.043,-0.0455
-1.1895,-1.1675,0.022,1.1785,-0.606,-0.5725,-0.3045,-0.2095,-0.3035,-0.342,-0.4335,-0.568,-0.085,-0.0385,-0.044
-1.169,-1.179,-0.01,1.1745,-0.5795,-0.5945,-0.323,-0.2225,-0.316,-0.355,-0.4495,-0.586,-0.089,-0.0455,-0.0455
-1.1755,-1.185,-0.0095,1.1805,-0.5835,-0.5975,-0.316,-0.215,-0.3075,-0.3435,-0.4405,-0.582,-0.0895,-0.058,-0.048
-1.179,-1.1905,-0.0115,1.185,-0.584,-0.601,-0.3165,-0.2105,-0.3035,-0.34,-0.4375,-0.582,-0.0905,-0.0585,-0.052
-1.1665,-1.1785,-0.012,1.173,-0.578,-0.595,-0.3085,-0.203,-0.298,-0.334,-0.4335,-0.582,-0.0905,-0.067,-0.061
-1.1785,-1.185,-0.007,1.182,-0.586,-0.596,-0.2945,-0.189,-0.2865,-0.323,-0.424,-0.5755,-0.0875,-0.0705,-0.0595
-1.1965,-1.196,0.0005,1.196,-0.5985,-0.5975,-0.292,-0.188,-0.2825,-0.3215,-0.425,-0.5785,-0.09,-0.0675,-0.052
-1.2185,-1.218,0.0005,1.2185,-0.61,-0.6085,-0.2935,-0.1905,-0.284,-0.3235,-0.429,-0.583,-0.0925,-0.074,-0.044
-1.2175,-1.217,0.0005,1.2175,-0.609,-0.6085,-0.2975,-0.19,-0.285,-0.326,-0.432,-0.5855,-0.093,-0.0635,-0.04
-1.196,-1.172,0.0245,1.184,-0.6105,-0.5735,-0.2875,-0.1805,-0.2735,-0.3145,-0.4235,-0.5775,-0.093,-0.0435,-0.041
-1.1625,-1.17,-0.0075,1.1665,-0.578,-0.589,-0.293,-0.1825,-0.2745,-0.317,-0.4295,-0.583,-0.096,-0.0525,-0.04
-1.139,-1.19,-0.051,1.1645,-0.5445,-0.6205,-0.3085,-0.1945,-0.284,-0.33,-0.4455,-0.596,-0.099,-0.067,-0.0425
-1.1695,-1.196,-0.026,1.183,-0.572,-0.611,-0.2955,-0.189,-0.276,-0.3235,-0.4425,-0.5895,-0.1005,-0.0725,-0.052
-1.1775,-1.182,-0.0045,1.18,-0.587,-0.5935,-0.2925,-0.188,-0.282,-0.329,-0.4495,-0.5925,-0.1005,-0.059,-0.055
-1.1945,-1.185,0.009,1.19,-0.602,-0.588,-0.296,-0.1925,-0.29,-0.3375,-0.459,-0.601,-0.098,-0.043,-0.049
-1.1975,-1.1865,0.011,1.192,-0.6045,-0.5875,-0.2985,-0.196,-0.291,-0.3395,-0.4615,-0.6045,-0.096,-0.045,-0.049
-1.196,-1.1815,0.0145,1.189,-0.6055,-0.5835,-0.3045,-0.2,-0.2975,-0.3445,-0.469,-0.61,-0.095,-0.039,-0.051
-1.2325,-1.1895,0.043,1.211,-0.638,-0.573,-0.2935,-0.1895,-0.284,-0.333,-0.4585,-0.6005,-0.0955,-0.03,-0.0515
-1.2635,-1.213,0.05,1.2385,-0.657,-0.5815,-0.292,-0.1825,-0.2745,-0.3245,-0.4535,-0.593,-0.096,-0.038,-0.048
-1.26,-1.218,0.042,1.239,-0.651,-0.588,-0.291,-0.1755,-0.266,-0.3185,-0.4515,-0.589,-0.0975,-0.046,-0.0465
-1.2045,-1.1775,0.027,1.191,-0.616,-0.575,-0.2995,-0.1805,-0.268,-0.3255,-0.4605,-0.596,-0.0985,-0.0425,-0.0505
-1.193,-1.171,0.022,1.182,-0.608,-0.5745,-0.307,-0.186,-0.275,-0.3325,-0.4695,-0.606,-0.101,-0.0385,-0.0495
-1.2205,-1.176,0.045,1.1985,-0.633,-0.5655,-0.2915,-0.168,-0.2565,-0.3135,-0.4515,-0.5925,-0.104,-0.0375,-0.0505
-1.1895,-1.1915,-0.002,1.191,-0.594,-0.597,-0.3025,-0.1805,-0.2685,-0.3245,-0.462,-0.604,-0.1055,-0.0535,-0.0515
-1.154,-1.2235,-0.0695,1.189,-0.5425,-0.6465,-0.314,-0.197,-0.2865,-0.342,-0.481,-0.625,-0.105,-0.067,-0.0465
-1.1955,-1.2295,-0.0335,1.213,-0.5815,-0.6315,-0.302,-0.186,-0.274,-0.3275,-0.4705,-0.6135,-0.102,-0.068,-0.0425
-1.2245,-1.209,0.0155,1.217,-0.62,-0.597,-0.288,-0.1695,-0.256,-0.3085,-0.4525,-0.5965,-0.101,-0.073,-0.04
-1.2305,-1.2105,0.0195,1.221,-0.6255,-0.5955,-0.2895,-0.1745,-0.257,-0.31,-0.4555,-0.605,-0.0995,-0.0665,-0.045
-1.2335,-1.208,0.0255,1.221,-0.6295,-0.5915,-0.284,-0.1735,-0.2585,-0.3125,-0.4585,-0.6085,-0.1015,-0.0665,-0.05
-1.19,-1.18,0.01,1.1855,-0.6005,-0.585,-0.2825,-0.1685,-0.2595,-0.3145,-0.4615,-0.609,-0.102,-0.065,-0.0485
-1.189,-1.185,0.004,1.1875,-0.597,-0.5905,-0.289,-0.1765,-0.268,-0.3195,-0.47,-0.621,-0.102,-0.059,-0.0525
-1.201,-1.1935,0.0075,1.1975,-0.6045,-0.593,-0.2895,-0.176,-0.266,-0.322,-0.4735,-0.6235,-0.1035,-0.054,-0.051
-1.2075,-1.1905,0.017,1.1995,-0.6125,-0.587,-0.2885,-0.1735,-0.261,-0.323,-0.475,-0.621,-0.1035,-0.054,-0.0455
-1.191,-1.1775,0.0135,1.1845,-0.6025,-0.582,-0.289,-0.175,-0.263,-0.327,-0.4805,-0.628,-0.1065,-0.056,-0.0505
-1.1825,-1.174,0.0085,1.1785,-0.5955,-0.5825,-0.292,-0.1775,-0.2625,-0.331,-0.4865,-0.6285,-0.1065,-0.0315,-0.0515
-1.1955,-1.177,0.0185,1.1865,-0.607,-0.5795,-0.2955,-0.1885,-0.27,-0.3345,-0.491,-0.6265,-0.108,-0.027,-0.0435
-1.1985,-1.184,0.0145,1.1915,-0.6065,-0.585,-0.3005,-0.1935,-0.2755,-0.337,-0.4935,-0.628,-0.1095,-0.0335,-0.044
-1.215,-1.1985,0.017,1.207,-0.6165,-0.5905,-0.3015,-0.187,-0.267,-0.333,-0.49,-0.625,-0.1095,-0.034,-0.049
-1.2305,-1.207,0.0235,1.219,-0.627,-0.592,-0.316,-0.203,-0.283,-0.346,-0.502,-0.634,-0.11,-0.0355,-0.048
-1.2115,-1.204,0.0075,1.208,-0.61,-0.598,-0.3365,-0.223,-0.3045,-0.366,-0.5185,-0.649,-0.1115,-0.03,-0.0475
-1.19,-1.2,-0.0095,1.195,-0.5905,-0.6045,-0.338,-0.221,-0.303,-0.365,-0.518,-0.649,-0.1135,-0.03,-0.045
-1.2135,-1.218,-0.005,1.216,-0.6045,-0.6115,-0.325,-0.2075,-0.296,-0.3555,-0.51,-0.639,-0.1125,-0.039,-0.043
-1.209,-1.225,-0.0155,1.2175,-0.597,-0.6205,-0.326,-0.209,-0.2945,-0.3545,-0.5105,-0.64,-0.113,-0.043,-0.0475
-1.2875,-1.2145,0.073,1.2515,-0.6805,-0.571,-0.298,-0.1765,-0.259,-0.3195,-0.4745,-0.605,-0.1125,-0.037,-0.0465
-1.2105,-1.2005,0.01,1.206,-0.6105,-0.5955,-0.319,-0.1915,-0.2745,-0.332,-0.489,-0.617,-0.112,-0.0485,-0.047
-1.078,-1.186,-0.108,1.132,-0.485,-0.647,-0.352,-0.2295,-0.308,-0.3655,-0.5265,-0.6545,-0.113,-0.051,-0.0475
-1.199,-1.208,-0.009,1.2035,-0.595,-0.6085,-0.317,-0.2,-0.282,-0.342,-0.5035,-0.631,-0.116,-0.0445,-0.043
-1.2865,-1.2535,0.033,1.2705,-0.66,-0.6105,-0.3145,-0.194,-0.2765,-0.333,-0.495,-0.626,-0.118,-0.055,-0.044
-1.322,-1.2835,0.0385,1.303,-0.68,-0.6225,-0.319,-0.2025,-0.274,-0.33,-0.49,-0.624,-0.1145,-0.06,-0.0365
-1.303,-1.262,0.0405,1.283,-0.672,-0.6105,-0.323,-0.205,-0.2745,-0.332,-0.492,-0.6205,-0.113,-0.0605,-0.0355
-1.209,-1.198,0.011,1.2035,-0.61,-0.5935,-0.3185,-0.1965,-0.271,-0.329,-0.4865,-0.6135,-0.114,-0.0615,-0.0365
-1.1685,-1.19,-0.0215,1.1795,-0.5735,-0.606,-0.324,-0.216,-0.2745,-0.3335,-0.4885,-0.618,-0.1125,-0.068,-0.0335
-1.172,-1.184,-0.012,1.1785,-0.58,-0.598,-0.327,-0.225,-0.2755,-0.337,-0.495,-0.622,-0.1115,-0.058,-0.043
-1.176,-1.1735,0.0025,1.175,-0.5895,-0.5855,-0.3205,-0.217,-0.271,-0.3345,-0.49,-0.616,-0.1095,-0.05,-0.04
-1.182,-1.186,-0.004,1.1845,-0.5895,-0.595,-0.3285,-0.2195,-0.2735,-0.3385,-0.493,-0.618,-0.108,-0.048,-0.0375
-1.177,-1.1565,0.0205,1.167,-0.599,-0.568,-0.3265,-0.2095,-0.266,-0.3325,-0.489,-0.6105,-0.1075,-0.019,-0.04
-1.1735,-1.1475,0.026,1.161,-0.6,-0.5605,-0.3345,-0.219,-0.273,-0.338,-0.494,-0.6145,-0.1065,-0.01,-0.0465
-1.1845,-1.1565,0.028,1.1705,-0.6065,-0.5645,-0.3465,-0.2235,-0.278,-0.341,-0.498,-0.617,-0.104,-0.025,-0.0475
-1.182,-1.1605,0.0215,1.1715,-0.602,-0.5695,-0.356,-0.2285,-0.278,-0.3435,-0.5025,-0.616,-0.101,-0.023,-0.0425
-1.1805,-1.1705,0.01,1.1755,-0.5955,-0.58,-0.353,-0.2275,-0.275,-0.341,-0.5005,-0.6115,-0.0975,-0.006,-0.047
-1.229,-1.182,0.0465,1.206,-0.638,-0.568,-0.343,-0.2205,-0.2635,-0.327,-0.4825,-0.591,-0.0935,-0.0075,-0.0425
-1.1875,-1.1795,0.008,1.184,-0.598,-0.5855,-0.349,-0.231,-0.2705,-0.334,-0.4865,-0.5935,-0.0925,-0.016,-0.04
-1.142,-1.173,-0.031,1.158,-0.5555,-0.602,-0.3575,-0.2425,-0.283,-0.3405,-0.4865,-0.5965,-0.0895,-0.0215,-0.0345
-1.18,-1.1975,-0.018,1.189,-0.581,-0.608,-0.3685,-0.257,-0.2955,-0.347,-0.483,-0.5955,-0.084,-0.0205,-0.028
-1.1415,-1.199,-0.0575,1.1705,-0.542,-0.628,-0.387,-0.2725,-0.3055,-0.3585,-0.492,-0.6065,-0.077,-0.013,-0.037
-1.101,-1.2015,-0.1005,1.1515,-0.5005,-0.651,-0.405,-0.287,-0.317,-0.368,-0.5015,-0.615,-0.0735,-0.0215,-0.0395
-1.0195,-1.222,-0.2025,1.121,-0.4085,-0.712,-0.44,-0.3205,-0.353,-0.4035,-0.5335,-0.6475,-0.0695,-0.0155,-0.039
-1.0495,-1.1795,-0.13,1.115,-0.46,-0.655,-0.4095,-0.2915,-0.313,-0.362,-0.4935,-0.606,-0.0625,0.002,-0.035
-1.2585,-1.1465,0.1115,1.2025,-0.6855,-0.5175,-0.3115,-0.191,-0.213,-0.261,-0.3875,-0.4995,-0.057,-0.0145,-0.0355
-1.265,-1.139,0.1265,1.202,-0.696,-0.506,-0.302,-0.179,-0.1985,-0.2465,-0.3675,-0.479,-0.05,-0.022,-0.037
-1.1815,-1.1115,0.0695,1.1465,-0.6255,-0.521,-0.3275,-0.2095,-0.218,-0.2635,-0.3845,-0.493,-0.0465,-0.011,-0.0305
-1.2215,-1.1315,0.09,1.1765,-0.656,-0.5205,-0.3345,-0.218,-0.2275,-0.271,-0.389,-0.4935,-0.0445,-0.011,-0.029
-1.2065,-1.1485,0.058,1.178,-0.6325,-0.545,-0.357,-0.2415,-0.2495,-0.292,-0.406,-0.5045,-0.0385,-0.0015,-0.0265
-1.1525,-1.1455,0.007,1.1495,-0.58,-0.5695,-0.3745,-0.2585,-0.265,-0.3095,-0.4165,-0.514,-0.0335,-0.0065,-0.025
-1.165,-1.151,0.014,1.158,-0.5895,-0.5685,-0.3885,-0.2705,-0.2755,-0.3225,-0.4255,-0.522,-0.0295,-0.007,-0.0275
-1.19,-1.136,0.0545,1.163,-0.6225,-0.541,-0.391,-0.2735,-0.2775,-0.322,-0.4225,-0.5175,-0.027,0.017,-0.0265
-1.1915,-1.1185,0.073,1.155,-0.632,-0.523,-0.388,-0.273,-0.2705,-0.3105,-0.4105,-0.5035,-0.021,0.0275,-0.03
-1.157,-1.0935,0.0635,1.125,-0.6105,-0.515,-0.3885,-0.2725,-0.2675,-0.3055,-0.404,-0.4955,-0.014,0.032,-0.0315
-1.131,-1.092,0.0395,1.112,-0.5855,-0.5265,-0.397,-0.279,-0.2755,-0.3125,-0.4045,-0.497,-0.01,0.0315,-0.018
-1.1145,-1.095,0.0195,1.105,-0.5675,-0.5375,-0.4085,-0.2935,-0.2915,-0.323,-0.4095,-0.503,-0.006,0.036,-0.0175
-1.088,-1.074,0.0145,1.081,-0.5515,-0.5295,-0.4175,-0.3035,-0.3,-0.3285,-0.4095,-0.505,-0.001,0.0435,-0.024
-1.0965,-1.0915,0.005,1.0945,-0.551,-0.5435,-0.422,-0.3085,-0.301,-0.3305,-0.4075,-0.502,0.004,0.032,-0.023
-1.127,-1.1195,0.0075,1.1235,-0.5675,-0.556,-0.4165,-0.2975,-0.297,-0.3225,-0.3945,-0.4895,0.0085,0.0395,-0.018
-1.1395,-1.1365,0.0025,1.138,-0.5715,-0.567,-0.418,-0.305,-0.3005,-0.322,-0.3885,-0.4835,0.0115,0.0375,-0.0145
-1.112,-1.1185,-0.006,1.1155,-0.5535,-0.562,-0.419,-0.311,-0.3005,-0.3195,-0.38,-0.475,0.0175,0.026,-0.0175
-1.0885,-1.077,0.0115,1.083,-0.55,-0.533,-0.4075,-0.298,-0.286,-0.302,-0.357,-0.4535,0.021,0.033,-0.0155
-1.0925,-1.0835,0.009,1.0885,-0.551,-0.5375,-0.407,-0.3045,-0.2885,-0.3015,-0.35,-0.445,0.0265,0.0215,-0.019
-1.0855,-1.0895,-0.004,1.088,-0.541,-0.547,-0.42,-0.317,-0.2985,-0.3105,-0.3545,-0.448,0.0345,0.013,-0.019
-1.0725,-1.095,-0.0225,1.084,-0.5255,-0.559,-0.4305,-0.3235,-0.3025,-0.3145,-0.354,-0.448,0.04,0.0155,-0.0155
-1.114,-1.122,-0.008,1.118,-0.553,-0.565,-0.431,-0.3215,-0.2995,-0.3105,-0.3465,-0.4445,0.045,0.014,-0.013
-1.1325,-1.1245,0.0085,1.1285,-0.571,-0.558,-0.433,-0.3225,-0.2965,-0.3085,-0.341,-0.4395,0.0495,0.0155,-0.008
-1.112,-1.1175,-0.0055,1.115,-0.5535,-0.5615,-0.4375,-0.3275,-0.299,-0.312,-0.3375,-0.4355,0.055,0.0155,-0.012
-1.1215,-1.1135,0.0075,1.1175,-0.5645,-0.553,-0.442,-0.331,-0.302,-0.3135,-0.3365,-0.435,0.056,0.0265,-0.0145
-1.1125,-1.094,0.018,1.1035,-0.5655,-0.538,-0.44,-0.3275,-0.3015,-0.312,-0.3315,-0.428,0.057,0.042,-0.011
-1.127,-1.0895,0.0375,1.1085,-0.5825,-0.526,-0.437,-0.3275,-0.3,-0.3085,-0.3235,-0.4195,0.0595,0.0535,-0.0125
-1.1225,-1.0905,0.032,1.107,-0.5775,-0.529,-0.45,-0.3435,-0.3135,-0.319,-0.3285,-0.422,0.062,0.0565,-0.0155
-1.0595,-1.0745,-0.015,1.067,-0.5225,-0.5445,-0.4605,-0.3555,-0.3275,-0.332,-0.3385,-0.4305,0.0645,0.055,-0.014
-1.0205,-1.05,-0.0295,1.0355,-0.4955,-0.54,-0.4565,-0.3575,-0.3295,-0.332,-0.334,-0.425,0.0635,0.061,-0.0105
-1.0895,-1.0435,0.0455,1.0665,-0.568,-0.499,-0.439,-0.3415,-0.316,-0.3135,-0.3095,-0.399,0.0675,0.059,-0.009
-1.1335,-1.056,0.0775,1.095,-0.606,-0.489,-0.4345,-0.337,-0.3105,-0.3085,-0.303,-0.393,0.0695,0.067,-0.011
-1.065,-1.049,0.016,1.0575,-0.5405,-0.5165,-0.4505,-0.355,-0.331,-0.3265,-0.319,-0.4075,0.071,0.073,-0.012
-1.027,-1.0475,-0.0205,1.0375,-0.5035,-0.534,-0.4535,-0.362,-0.3405,-0.3315,-0.321,-0.41,0.0735,0.0575,-0.0135
-1.0385,-1.0715,-0.033,1.055,-0.503,-0.552,-0.454,-0.3605,-0.336,-0.3245,-0.3115,-0.403,0.077,0.035,-0.015
-1.0925,-1.083,0.0095,1.0875,-0.551,-0.5365,-0.443,-0.3465,-0.3215,-0.308,-0.292,-0.382,0.0795,0.021,-0.012
-1.087,-1.0545,0.032,1.071,-0.5595,-0.511,-0.429,-0.3365,-0.317,-0.301,-0.282,-0.371,0.081,0.0315,-0.008
-1.104,-1.0505,0.054,1.0775,-0.5795,-0.4985,-0.437,-0.3465,-0.33,-0.31,-0.2885,-0.3795,0.081,0.0535,-0.005
-1.1235,-1.0775,0.046,1.1005,-0.585,-0.5155,-0.453,-0.353,-0.337,-0.3175,-0.292,-0.3835,0.082,0.047,-0.0045
-1.052,-1.0725,-0.0205,1.062,-0.516,-0.5465,-0.4565,-0.353,-0.335,-0.316,-0.288,-0.3825,0.0835,0.025,-0.0065
-1.056,-1.076,-0.02,1.0665,-0.5185,-0.548,-0.4535,-0.352,-0.3325,-0.3105,-0.2805,-0.3775,0.082,0.029,-0.003
-1.057,-1.0675,-0.011,1.0625,-0.5235,-0.5395,-0.4505,-0.3455,-0.3255,-0.3035,-0.2675,-0.3635,0.085,0.0335,-0.0015
-1.0345,-1.0355,-0.001,1.0355,-0.517,-0.518,-0.4395,-0.341,-0.316,-0.2945,-0.255,-0.353,0.0875,0.029,-0.0025
-1.061,-1.046,0.015,1.054,-0.5385,-0.5155,-0.452,-0.3575,-0.331,-0.3085,-0.265,-0.365,0.088,0.038,0.0025
-1.0795,-1.057,0.0225,1.0685,-0.551,-0.5175,-0.463,-0.37,-0.34,-0.32,-0.273,-0.3715,0.0905,0.0545,0.0045
-1.0545,-1.0535,0.001,1.054,-0.528,-0.526,-0.46,-0.3755,-0.3425,-0.3235,-0.273,-0.3715,0.0925,0.0575,0.004
-1.042,-1.061,-0.019,1.052,-0.512,-0.54,-0.477,-0.392,-0.3565,-0.336,-0.284,-0.3825,0.093,0.057,0.003
-1.0635,-1.0655,-0.002,1.065,-0.531,-0.534,-0.484,-0.395,-0.361,-0.3405,-0.2875,-0.3825,0.0945,0.067,0.0015
-1.0635,-1.0615,0.002,1.0625,-0.533,-0.53,-0.4785,-0.3835,-0.357,-0.3375,-0.2835,-0.3745,0.0975,0.075,0.005
-1.0715,-1.0685,0.003,1.07,-0.5375,-0.533,-0.4735,-0.3775,-0.3535,-0.3325,-0.2785,-0.3695,0.098,0.0715,0.006
-1.099,-1.073,0.026,1.086,-0.5625,-0.5235,-0.461,-0.3715,-0.346,-0.325,-0.269,-0.3585,0.101,0.0685,0.0075
-1.0955,-1.07,0.026,1.083,-0.561,-0.522,-0.4705,-0.3785,-0.3535,-0.3315,-0.275,-0.3635,0.1015,0.079,0.003
-1.104,-1.084,0.0195,1.094,-0.562,-0.5325,-0.484,-0.3875,-0.366,-0.3435,-0.2865,-0.3735,0.101,0.077,-0.0025
-1.0965,-1.0685,0.028,1.0825,-0.5625,-0.52,-0.469,-0.375,-0.355,-0.332,-0.2745,-0.362,0.102,0.0655,0.0025
-1.0315,-1.0545,-0.023,1.043,-0.504,-0.539,-0.4715,-0.381,-0.3615,-0.3335,-0.275,-0.3645,0.1005,0.055,0.006
-1.0575,-1.0745,-0.0165,1.066,-0.521,-0.5455,-0.481,-0.3925,-0.3775,-0.344,-0.283,-0.373,0.0975,0.058,0.0065
-1.058,-1.0645,-0.0065,1.0615,-0.526,-0.5355,-0.4825,-0.398,-0.381,-0.345,-0.2845,-0.3755,0.0975,0.0705,0.0065
-1.112,-1.064,0.0485,1.088,-0.5805,-0.5075,-0.461,-0.3745,-0.3565,-0.3205,-0.26,-0.3525,0.099,0.0635,0.006
-1.179,-1.065,0.114,1.1225,-0.647,-0.4755,-0.4345,-0.3475,-0.332,-0.297,-0.237,-0.3285,0.1,0.0555,0.009
-1.0275,-1.04,-0.013,1.034,-0.5075,-0.5265,-0.46,-0.3715,-0.3555,-0.323,-0.265,-0.3545,0.1015,0.055,0.0095
-1.021,-1.0485,-0.027,1.035,-0.4975,-0.538,-0.467,-0.3735,-0.358,-0.3245,-0.2655,-0.357,0.0995,0.057,0.007
-1.091,-1.069,0.0225,1.08,-0.557,-0.523,-0.458,-0.363,-0.3495,-0.3145,-0.2525,-0.3455,0.1015,0.0495,0.006
-1.12,-1.1115,0.0085,1.116,-0.5645,-0.5515,-0.4685,-0.375,-0.3665,-0.33,-0.263,-0.358,0.102,0.0485,0.007
-1.1485,-1.129,0.019,1.139,-0.584,-0.555,-0.473,-0.388,-0.3785,-0.342,-0.27,-0.3665,0.0965,0.059,0.0095
-1.0825,-1.074,0.0085,1.0785,-0.5455,-0.533,-0.471,-0.391,-0.3805,-0.343,-0.269,-0.361,0.0965,0.0485,0.013
-1.0245,-1.0075,0.017,1.0165,-0.521,-0.495,-0.455,-0.3765,-0.369,-0.3315,-0.254,-0.3445,0.0975,0.0545,0.012
-1.0075,-0.9805,0.0275,0.994,-0.5175,-0.4765,-0.4585,-0.378,-0.3705,-0.3345,-0.2545,-0.3455,0.096,0.077,0.0145
-1.0395,-1.022,0.0175,1.031,-0.529,-0.5025,-0.4845,-0.407,-0.402,-0.359,-0.278,-0.3675,0.096,0.086,0.017
-1.0635,-1.0575,0.0055,1.061,-0.535,-0.526,-0.4885,-0.4135,-0.411,-0.366,-0.287,-0.3775,0.098,0.0765,0.013
-1.0715,-1.064,0.0075,1.068,-0.54,-0.5285,-0.488,-0.41,-0.4055,-0.364,-0.286,-0.378,0.097,0.0655,0.0145
-1.0935,-1.071,0.0225,1.0825,-0.558,-0.5245,-0.492,-0.4115,-0.4045,-0.3645,-0.2865,-0.3765,0.0955,0.0765,0.015
-1.0895,-1.058,0.0315,1.074,-0.5605,-0.5135,-0.48,-0.399,-0.3935,-0.3515,-0.278,-0.3675,0.0975,0.0745,0.011
-1.0995,-1.058,0.042,1.079,-0.571,-0.508,-0.4725,-0.39,-0.3885,-0.349,-0.2765,-0.3645,0.0955,0.075,0.0095
-1.112,-1.0645,0.0475,1.0885,-0.58,-0.5085,-0.476,-0.3915,-0.39,-0.353,-0.2805,-0.365,0.096,0.08,0.0125
-1.083,-1.0515,0.0315,1.0675,-0.5575,-0.51,-0.4715,-0.3925,-0.39,-0.352,-0.277,-0.363,0.0955,0.0825,0.014
-1.069,-1.0605,0.009,1.065,-0.5395,-0.5255,-0.4775,-0.396,-0.395,-0.357,-0.2805,-0.3695,0.0935,0.076,0.0145
-1.071,-1.0685,0.0025,1.07,-0.537,-0.533,-0.485,-0.399,-0.397,-0.356,-0.2785,-0.371,0.0945,0.0675,0.0175
-1.0485,-1.056,-0.007,1.0525,-0.521,-0.5315,-0.481,-0.395,-0.3945,-0.353,-0.2745,-0.368,0.094,0.066,0.015
-1.008,-1.0395,-0.0315,1.024,-0.4885,-0.5355,-0.4775,-0.39,-0.3925,-0.3515,-0.272,-0.364,0.0925,0.057,0.018
-1.014,-1.037,-0.023,1.026,-0.4955,-0.53,-0.4635,-0.385,-0.385,-0.3385,-0.257,-0.349,0.0915,0.0535,0.021
-1.087,-1.044,0.043,1.066,-0.565,-0.5005,-0.442,-0.37,-0.368,-0.3195,-0.2355,-0.3275,0.091,0.05,0.0205
-1.1055,-1.0535,0.052,1.0795,-0.579,-0.5005,-0.444,-0.3695,-0.3685,-0.32,-0.2375,-0.328,0.092,0.0415,0.0215
-1.0065,-1.0645,-0.0575,1.0355,-0.475,-0.561,-0.4765,-0.3985,-0.3975,-0.3525,-0.2725,-0.3635,0.092,0.044,0.0155
-0.947,-1.0475,-0.1005,0.9975,-0.4235,-0.574,-0.4885,-0.4055,-0.406,-0.3645,-0.283,-0.3745,0.0935,0.061,0.0165
-0.9125,-1.036,-0.123,0.9745,-0.395,-0.5795,-0.5025,-0.417,-0.42,-0.3805,-0.2985,-0.389,0.094,0.0525,0.014
-1.021,-1.036,-0.015,1.029,-0.5035,-0.5255,-0.478,-0.396,-0.401,-0.3625,-0.278,-0.37,0.092,0.046,0.012
-1.2185,-1.05,0.1685,1.1345,-0.6935,-0.441,-0.431,-0.3495,-0.354,-0.3135,-0.227,-0.3175,0.0935,0.061,0.016
-1.1965,-1.0615,0.135,1.129,-0.666,-0.463,-0.4395,-0.36,-0.365,-0.3245,-0.2355,-0.3235,0.094,0.0495,0.02
-1.1225,-1.0305,0.092,1.0765,-0.607,-0.4695,-0.4405,-0.3685,-0.377,-0.331,-0.2385,-0.325,0.0925,0.058,0.024
-1.0945,-1.02,0.0745,1.0575,-0.585,-0.4725,-0.45,-0.383,-0.39,-0.3415,-0.248,-0.3315,0.0935,0.0675,0.018
-1.088,-1.0275,0.061,1.058,-0.575,-0.483,-0.4655,-0.3995,-0.4115,-0.3635,-0.268,-0.35,0.0945,0.0735,0.0165
-1.088,-1.017,0.071,1.053,-0.58,-0.473,-0.4655,-0.3995,-0.4155,-0.3665,-0.269,-0.3535,0.092,0.1015,0.0205
-1.086,-1.021,0.065,1.0535,-0.576,-0.478,-0.463,-0.393,-0.4105,-0.3655,-0.267,-0.3525,0.093,0.087,0.0195
-1.0635,-1.044,0.0195,1.054,-0.5415,-0.512,-0.472,-0.399,-0.4205,-0.376,-0.2785,-0.3615,0.0945,0.062,0.023
-1.027,-1.0475,-0.021,1.0375,-0.503,-0.534,-0.4835,-0.4115,-0.423,-0.379,-0.282,-0.3645,0.096,0.052,0.0215
-1.066,-1.0585,0.007,1.0625,-0.5365,-0.526,-0.487,-0.4135,-0.418,-0.377,-0.282,-0.3675,0.0975,0.0675,0.022
-1.0775,-1.063,0.014,1.0705,-0.546,-0.5245,-0.4985,-0.4195,-0.4245,-0.3835,-0.291,-0.3785,0.0965,0.075,0.0245
-1.038,-1.048,-0.01,1.043,-0.5145,-0.529,-0.494,-0.4125,-0.419,-0.3765,-0.2835,-0.371,0.0975,0.054,0.025
-1.055,-1.067,-0.012,1.061,-0.522,-0.5395,-0.469,-0.3895,-0.4015,-0.356,-0.2635,-0.355,0.0985,0.0445,0.025
-1.0735,-1.0725,0.001,1.073,-0.5375,-0.5355,-0.455,-0.377,-0.3935,-0.345,-0.254,-0.3445,0.097,0.048,0.0205
-1.078,-1.063,0.015,1.071,-0.547,-0.524,-0.462,-0.3845,-0.4005,-0.352,-0.2625,-0.353,0.0935,0.06,0.0245
-1.078,-1.0535,0.024,1.066,-0.551,-0.5145,-0.471,-0.394,-0.4055,-0.357,-0.2675,-0.361,0.0945,0.0585,0.024
-1.068,-1.0475,0.0205,1.058,-0.5445,-0.5135,-0.4735,-0.404,-0.4125,-0.365,-0.2745,-0.369,0.0945,0.0675,0.024
-1.0715,-1.0405,0.031,1.0565,-0.5515,-0.505,-0.4765,-0.4095,-0.4145,-0.3705,-0.2785,-0.3745,0.092,0.081,0.0285
-1.086,-1.0515,0.034,1.069,-0.5605,-0.5085,-0.4795,-0.413,-0.4165,-0.373,-0.28,-0.3735,0.0925,0.071,0.023
-1.0715,-1.0605,0.011,1.066,-0.5415,-0.5245,-0.477,-0.416,-0.4165,-0.373,-0.2795,-0.3725,0.093,0.066,0.0185
-1.0435,-1.037,0.006,1.0405,-0.525,-0.5155,-0.472,-0.41,-0.413,-0.371,-0.2765,-0.369,0.0915,0.0715,0.021
-1.0225,-1.0195,0.003,1.021,-0.513,-0.5085,-0.4855,-0.4155,-0.4225,-0.3815,-0.2855,-0.3755,0.0905,0.0765,0.024
-1.0545,-1.0165,0.0375,1.036,-0.5465,-0.4895,-0.486,-0.4085,-0.4145,-0.3735,-0.277,-0.367,0.0925,0.0865,0.0215
-1.1375,-1.0385,0.099,1.088,-0.6185,-0.4695,-0.4635,-0.388,-0.401,-0.359,-0.2615,-0.3495,0.0925,0.089,0.021
-1.13,-1.051,0.079,1.091,-0.605,-0.486,-0.4765,-0.401,-0.412,-0.3725,-0.2735,-0.36,0.0935,0.085,0.019
-1.0925,-1.0405,0.0525,1.0665,-0.5725,-0.494,-0.489,-0.4075,-0.4165,-0.379,-0.2805,-0.366,0.0965,0.0865,0.021
-1.0625,-1.0425,0.0195,1.053,-0.5415,-0.5115,-0.4965,-0.412,-0.4245,-0.3855,-0.2885,-0.373,0.099,0.079,0.024
-1.118,-1.0465,0.071,1.0825,-0.5945,-0.488,-0.477,-0.3945,-0.4055,-0.366,-0.273,-0.3545,0.1025,0.07,0.021
-1.1635,-1.0545,0.109,1.109,-0.6365,-0.4725,-0.4625,-0.3835,-0.3935,-0.3545,-0.2625,-0.3415,0.1035,0.0765,0.021
-1.0745,-1.0665,0.0075,1.071,-0.541,-0.5295,-0.4925,-0.4115,-0.4225,-0.3835,-0.2905,-0.371,0.1025,0.074,0.0205
-1.082,-1.0695,0.0125,1.076,-0.5475,-0.5285,-0.4945,-0.412,-0.426,-0.3835,-0.29,-0.3725,0.1035,0.0675,0.0215
-1.0755,-1.0565,0.0195,1.066,-0.548,-0.5185,-0.487,-0.4085,-0.4215,-0.3785,-0.2835,-0.3655,0.105,0.0685,0.026
-1.051,-1.046,0.0045,1.049,-0.528,-0.5205,-0.4845,-0.4045,-0.4165,-0.3755,-0.279,-0.3605,0.107,0.0665,0.028
-1.0905,-1.0635,0.027,1.0775,-0.559,-0.5185,-0.483,-0.401,-0.413,-0.3725,-0.276,-0.359,0.1065,0.067,0.027
-1.0865,-1.064,0.0225,1.0755,-0.5545,-0.5205,-0.479,-0.4015,-0.415,-0.375,-0.2785,-0.362,0.105,0.0645,0.0275
-1.1045,-1.072,0.0325,1.0885,-0.569,-0.5195,-0.481,-0.4035,-0.416,-0.3755,-0.281,-0.363,0.103,0.066,0.0255
-1.068,-1.0745,-0.006,1.0715,-0.531,-0.5405,-0.4905,-0.408,-0.4205,-0.3815,-0.2865,-0.369,0.1035,0.06,0.024
-1.0605,-1.0655,-0.005,1.063,-0.528,-0.535,-0.4875,-0.4045,-0.417,-0.3785,-0.2825,-0.364,0.103,0.057,0.0265
-1.131,-1.068,0.0625,1.0995,-0.597,-0.5025,-0.4705,-0.3885,-0.4035,-0.3635,-0.2695,-0.3485,0.101,0.0615,0.026
-1.117,-1.053,0.064,1.085,-0.591,-0.4945,-0.464,-0.386,-0.399,-0.3625,-0.268,-0.3475,0.0975,0.071,0.023
-1.09,-1.0475,0.0425,1.069,-0.5665,-0.5025,-0.4755,-0.3985,-0.4115,-0.376,-0.2825,-0.363,0.0925,0.087,0.021
-1.1045,-1.0555,0.049,1.08,-0.577,-0.5035,-0.4785,-0.398,-0.417,-0.381,-0.288,-0.3695,0.092,0.094,0.0205
-1.118,-1.063,0.055,1.091,-0.587,-0.504,-0.4835,-0.4065,-0.4195,-0.384,-0.2895,-0.373,0.093,0.1005,0.021
-1.1335,-1.0675,0.066,1.101,-0.6,-0.501,-0.485,-0.402,-0.422,-0.387,-0.2915,-0.376,0.0915,0.0985,0.024
-1.122,-1.068,0.054,1.0955,-0.5885,-0.507,-0.486,-0.407,-0.4225,-0.3885,-0.2945,-0.381,0.092,0.0895,0.022
-1.0605,-1.069,-0.0085,1.065,-0.526,-0.5385,-0.51,-0.427,-0.4375,-0.4035,-0.3105,-0.399,0.0935,0.086,0.0215
-1.0645,-1.0615,0.003,1.063,-0.534,-0.529,-0.5075,-0.418,-0.4365,-0.403,-0.309,-0.3965,0.0925,0.0905,0.0235
-1.0925,-1.054,0.0385,1.073,-0.5655,-0.5075,-0.4985,-0.4165,-0.4235,-0.3895,-0.298,-0.3845,0.095,0.0865,0.023
-1.1,-1.0675,0.0325,1.084,-0.5665,-0.5175,-0.4965,-0.413,-0.424,-0.3895,-0.2975,-0.3825,0.0955,0.0735,0.0265
-1.111,-1.0805,0.0305,1.096,-0.571,-0.525,-0.4885,-0.4055,-0.4215,-0.387,-0.2935,-0.379,0.0945,0.0685,0.027
-1.108,-1.068,0.04,1.0885,-0.574,-0.514,-0.478,-0.397,-0.407,-0.3715,-0.283,-0.369,0.097,0.0795,0.0215
-1.0955,-1.055,0.0405,1.0755,-0.5685,-0.507,-0.4715,-0.3915,-0.3965,-0.3605,-0.276,-0.363,0.097,0.0775,0.019
-1.079,-1.0645,0.0145,1.072,-0.547,-0.525,-0.486,-0.3995,-0.405,-0.3675,-0.2825,-0.37,0.0995,0.0595,0.023
-1.1225,-1.0755,0.047,1.0995,-0.585,-0.514,-0.4805,-0.397,-0.4045,-0.3675,-0.2815,-0.369,0.0995,0.07,0.0305
-1.136,-1.0765,0.059,1.1065,-0.5975,-0.5085,-0.474,-0.3945,-0.399,-0.362,-0.277,-0.366,0.1,0.081,0.03
-1.111,-1.0725,0.039,1.092,-0.575,-0.517,-0.466,-0.383,-0.3885,-0.3525,-0.268,-0.357,0.1005,0.069,0.0275
-1.12,-1.0825,0.0375,1.1015,-0.579,-0.5225,-0.4635,-0.382,-0.3875,-0.354,-0.2685,-0.3605,0.0965,0.067,0.0315
-1.1335,-1.103,0.0305,1.1185,-0.582,-0.5365,-0.4755,-0.393,-0.3995,-0.365,-0.2785,-0.3715,0.099,0.0685,0.025
-1.154,-1.12,0.034,1.137,-0.594,-0.543,-0.483,-0.398,-0.41,-0.377,-0.2875,-0.379,0.099,0.0735,0.0185
-1.17,-1.135,0.035,1.153,-0.6025,-0.5505,-0.4915,-0.406,-0.4185,-0.3865,-0.295,-0.3865,0.099,0.0875,0.023
-1.1685,-1.112,0.056,1.1405,-0.6125,-0.528,-0.485,-0.396,-0.404,-0.3725,-0.2815,-0.3735,0.101,0.0975,0.022
-1.1415,-1.091,0.0505,1.1165,-0.596,-0.52,-0.492,-0.407,-0.4145,-0.3825,-0.2885,-0.3805,0.0985,0.0955,0.022
-1.124,-1.077,0.047,1.101,-0.586,-0.515,-0.4925,-0.4135,-0.4215,-0.3875,-0.2935,-0.384,0.0995,0.1,0.024
-1.1245,-1.06,0.0645,1.0925,-0.5945,-0.498,-0.4815,-0.3975,-0.4065,-0.3755,-0.2845,-0.373,0.101,0.104,0.0185
-1.119,-1.0805,0.039,1.1,-0.5795,-0.521,-0.4895,-0.4045,-0.4165,-0.3865,-0.2975,-0.3825,0.1025,0.0955,0.023
-1.145,-1.111,0.0345,1.1285,-0.59,-0.538,-0.4985,-0.413,-0.425,-0.3945,-0.3065,-0.39,0.1015,0.0965,0.031
-1.1175,-1.096,0.021,1.107,-0.5695,-0.5375,-0.5095,-0.419,-0.427,-0.3965,-0.3115,-0.393,0.0995,0.093,0.0285
-1.029,-1.049,-0.0205,1.0395,-0.5045,-0.535,-0.506,-0.41,-0.4215,-0.394,-0.3115,-0.392,0.102,0.091,0.027
-1.008,-1.056,-0.048,1.032,-0.48,-0.552,-0.5105,-0.416,-0.4265,-0.4015,-0.318,-0.4035,0.1,0.0945,0.025
-1.0775,-1.089,-0.0115,1.0835,-0.5335,-0.55,-0.5015,-0.4125,-0.4175,-0.3915,-0.309,-0.398,0.1005,0.0755,0.0255
-1.196,-1.1125,0.0835,1.1545,-0.64,-0.5145,-0.4715,-0.3785,-0.386,-0.3585,-0.2765,-0.3685,0.103,0.064,0.0265
-1.235,-1.123,0.112,1.1795,-0.674,-0.505,-0.4665,-0.374,-0.38,-0.35,-0.267,-0.36,0.103,0.0775,0.025
-1.2255,-1.1265,0.0995,1.176,-0.663,-0.5135,-0.4655,-0.3855,-0.3915,-0.3565,-0.275,-0.3685,0.102,0.074,0.0245
-1.1955,-1.1045,0.0915,1.15,-0.644,-0.5065,-0.455,-0.3835,-0.392,-0.3535,-0.2705,-0.363,0.101,0.061,0.0215
-1.0905,-1.0295,0.0605,1.0605,-0.5755,-0.4845,-0.4345,-0.361,-0.371,-0.3325,-0.249,-0.3405,0.103,0.062,0.0215
-1.055,-1.0095,0.045,1.0325,-0.55,-0.4825,-0.4335,-0.3545,-0.3615,-0.3255,-0.244,-0.338,0.104,0.064,0.022
-1.085,-1.04,0.045,1.0625,-0.565,-0.4975,-0.44,-0.356,-0.367,-0.3335,-0.2535,-0.3465,0.104,0.058,0.023
-1.1155,-1.071,0.0445,1.0935,-0.58,-0.5135,-0.4615,-0.366,-0.381,-0.3495,-0.2705,-0.363,0.103,0.0585,0.026
-1.1175,-1.1005,0.017,1.109,-0.5675,-0.5415,-0.489,-0.387,-0.3985,-0.3715,-0.2905,-0.383,0.1005,0.0565,0.019
-1.1045,-1.0875,0.017,1.096,-0.561,-0.535,-0.4635,-0.3725,-0.387,-0.3595,-0.2805,-0.3715,0.099,0.0645,0.016
-1.116,-1.063,0.053,1.09,-0.5845,-0.505,-0.4525,-0.3625,-0.3775,-0.349,-0.272,-0.365,0.1,0.087,0.014
-1.1175,-1.06,0.0575,1.089,-0.5875,-0.501,-0.464,-0.368,-0.385,-0.3575,-0.279,-0.376,0.1015,0.0885,0.0145
-1.1445,-1.0705,0.0735,1.108,-0.609,-0.4985,-0.465,-0.373,-0.386,-0.358,-0.2785,-0.3765,0.101,0.077,0.0135
-1.1485,-1.078,0.0705,1.1135,-0.61,-0.5035,-0.4635,-0.3765,-0.3845,-0.3575,-0.277,-0.377,0.1,0.081,0.0105
-1.128,-1.078,0.05,1.1035,-0.589,-0.514,-0.46,-0.3785,-0.3885,-0.363,-0.283,-0.3805,0.0995,0.077,0.0135
-1.129,-1.0805,0.048,1.105,-0.589,-0.516,-0.463,-0.3875,-0.386,-0.3645,-0.286,-0.384,0.101,0.062,0.0095
-1.145,-1.075,0.07,1.1105,-0.608,-0.5025,-0.4725,-0.39,-0.384,-0.3645,-0.288,-0.387,0.1025,0.0795,0.01
-1.139,-1.0765,0.0625,1.108,-0.601,-0.507,-0.489,-0.3935,-0.391,-0.3715,-0.2965,-0.397,0.1015,0.088,0.0105
-1.129,-1.092,0.037,1.1105,-0.5835,-0.527,-0.482,-0.381,-0.3835,-0.361,-0.287,-0.3925,0.099,0.0625,0.0095
-1.122,-1.098,0.0245,1.11,-0.5735,-0.5365,-0.473,-0.3715,-0.38,-0.356,-0.281,-0.3855,0.0965,0.0515,0.012
-1.1045,-1.0765,0.028,1.091,-0.5665,-0.524,-0.471,-0.371,-0.371,-0.348,-0.277,-0.3795,0.096,0.0475,0.0115
-1.1025,-1.068,0.034,1.0855,-0.5685,-0.517,-0.4625,-0.3635,-0.3635,-0.3395,-0.271,-0.3725,0.098,0.05,0.0105
-1.0795,-1.0745,0.0045,1.077,-0.5425,-0.535,-0.4655,-0.3725,-0.3755,-0.3495,-0.285,-0.3865,0.0975,0.0725,0.0125
-1.107,-1.0555,0.0515,1.0815,-0.5795,-0.502,-0.453,-0.3515,-0.36,-0.3315,-0.271,-0.3715,0.098,0.074,0.015
-1.136,-1.0465,0.0895,1.0915,-0.613,-0.4785,-0.451,-0.3455,-0.3505,-0.323,-0.2625,-0.365,0.0985,0.079,0.0145
-1.135,-1.0645,0.07,1.1,-0.6025,-0.497,-0.4555,-0.355,-0.364,-0.3345,-0.274,-0.378,0.0975,0.085,0.01
-1.148,-1.0855,0.0625,1.117,-0.6055,-0.5115,-0.4535,-0.348,-0.3645,-0.336,-0.272,-0.377,0.1,0.0765,0.011
-1.1385,-1.0975,0.041,1.118,-0.59,-0.528,-0.4675,-0.37,-0.3715,-0.345,-0.281,-0.387,0.0985,0.0725,0.0105
-1.156,-1.0865,0.07,1.1215,-0.613,-0.5085,-0.449,-0.3525,-0.364,-0.3385,-0.2735,-0.38,0.096,0.0695,0.0105
-1.164,-1.0595,0.105,1.112,-0.635,-0.477,-0.431,-0.334,-0.348,-0.3275,-0.2605,-0.3675,0.095,0.0925,0.0145
-1.1195,-1.0425,0.077,1.081,-0.5985,-0.483,-0.45,-0.354,-0.358,-0.3385,-0.2715,-0.3755,0.0945,0.092,0.0115
-1.109,-1.0485,0.0605,1.079,-0.585,-0.494,-0.4555,-0.36,-0.363,-0.3445,-0.2775,-0.3805,0.0925,0.085,0.017
-1.1445,-1.0605,0.084,1.103,-0.6145,-0.488,-0.451,-0.355,-0.361,-0.3465,-0.282,-0.3835,0.0895,0.082,0.017
-1.112,-1.0575,0.0545,1.085,-0.5835,-0.5015,-0.46,-0.363,-0.372,-0.3585,-0.294,-0.395,0.0905,0.0725,0.001
-1.0755,-1.041,0.0345,1.0585,-0.5555,-0.503,-0.4555,-0.363,-0.3725,-0.355,-0.29,-0.3905,0.089,0.077,-0.0005
-1.09,-1.04,0.0495,1.0655,-0.57,-0.4955,-0.4475,-0.3555,-0.3705,-0.3515,-0.2875,-0.385,0.0845,0.083,0.0085
-1.1015,-1.038,0.0635,1.07,-0.583,-0.487,-0.441,-0.348,-0.363,-0.3465,-0.283,-0.382,0.0835,0.086,0.0125
-1.1075,-1.054,0.0535,1.081,-0.581,-0.5,-0.4495,-0.3515,-0.3685,-0.353,-0.2905,-0.3885,0.0835,0.069,0.0095
-1.127,-1.088,0.039,1.108,-0.5835,-0.5245,-0.4645,-0.3705,-0.376,-0.3615,-0.3005,-0.4005,0.083,0.0645,0.0035
-1.137,-1.085,0.052,1.111,-0.5945,-0.5165,-0.441,-0.352,-0.355,-0.3415,-0.283,-0.384,0.083,0.0645,0.0105
-1.0925,-1.084,0.0085,1.0885,-0.551,-0.538,-0.4365,-0.3465,-0.352,-0.338,-0.28,-0.382,0.085,0.056,0.011
-1.0475,-1.097,-0.049,1.0725,-0.4995,-0.573,-0.463,-0.3745,-0.3705,-0.357,-0.2985,-0.408,0.087,0.055,0.002
-0.949,-1.0965,-0.147,1.023,-0.401,-0.6215,-0.4985,-0.421,-0.413,-0.397,-0.3375,-0.4475,0.0855,0.056,0.003
-0.9935,-1.0795,-0.086,1.0365,-0.454,-0.5825,-0.487,-0.4105,-0.404,-0.3815,-0.321,-0.4295,0.0855,0.0675,0.0035
-1.2125,-1.052,0.1605,1.1325,-0.687,-0.4455,-0.409,-0.3205,-0.325,-0.2975,-0.235,-0.345,0.0855,0.0665,0.0125
-1.295,-1.031,0.264,1.1635,-0.7795,-0.3835,-0.356,-0.262,-0.2745,-0.247,-0.182,-0.2945,0.085,0.052,0.011
-1.204,-1.034,0.1695,1.1195,-0.687,-0.4325,-0.381,-0.2865,-0.299,-0.274,-0.2105,-0.3215,0.085,0.066,0.008
-1.0975,-1.059,0.0385,1.0785,-0.5685,-0.5105,-0.425,-0.3375,-0.3475,-0.324,-0.2625,-0.373,0.084,0.066,0.007
-1.0685,-1.0585,0.01,1.0635,-0.5395,-0.524,-0.44,-0.349,-0.361,-0.341,-0.28,-0.391,0.083,0.0605,0.0
-1.1025,-1.0435,0.059,1.0735,-0.581,-0.4925,-0.4385,-0.3445,-0.356,-0.3385,-0.2785,-0.389,0.0795,0.083,0.0035
-1.1235,-1.041,0.0825,1.0825,-0.603,-0.4795,-0.4305,-0.3395,-0.3505,-0.335,-0.2765,-0.387,0.079,0.091,0.0005
-1.125,-1.052,0.0725,1.0885,-0.599,-0.49,-0.4335,-0.347,-0.352,-0.3385,-0.282,-0.391,0.081,0.0815,0.0015
-1.1415,-1.0565,0.085,1.099,-0.6135,-0.4855,-0.439,-0.354,-0.3545,-0.341,-0.2835,-0.3925,0.082,0.0785,0.004
-1.113,-1.0315,0.081,1.0725,-0.5975,-0.475,-0.4475,-0.36,-0.3625,-0.349,-0.29,-0.398,0.0825,0.089,0.002
-1.116,-1.0455,0.0705,1.081,-0.5935,-0.4875,-0.4565,-0.372,-0.3715,-0.359,-0.302,-0.408,0.0795,0.0925,0.0075
-1.1385,-1.0605,0.078,1.0995,-0.6085,-0.491,-0.448,-0.368,-0.3695,-0.3575,-0.301,-0.4075,0.0775,0.088,0.0085
-1.1555,-1.058,0.0975,1.107,-0.627,-0.48,-0.447,-0.368,-0.368,-0.3525,-0.2945,-0.4,0.0795,0.0835,0.0065
-1.1455,-1.0565,0.0895,1.1015,-0.6175,-0.4835,-0.455,-0.3615,-0.3665,-0.3515,-0.292,-0.3975,0.0815,0.073,0.0155
-1.129,-1.0425,0.0865,1.086,-0.608,-0.478,-0.437,-0.341,-0.3475,-0.333,-0.2745,-0.3835,0.0835,0.063,0.0035
-1.145,-1.053,0.092,1.099,-0.619,-0.4805,-0.4375,-0.345,-0.351,-0.3345,-0.277,-0.3865,0.0835,0.0805,-0.0065
-1.135,-1.0505,0.0845,1.093,-0.61,-0.483,-0.446,-0.348,-0.365,-0.348,-0.288,-0.397,0.082,0.0915,0.008
-1.121,-1.0375,0.0835,1.0795,-0.6025,-0.477,-0.4345,-0.3455,-0.353,-0.333,-0.272,-0.383,0.0835,0.0825,0.0125
-1.137,-1.057,0.0805,1.097,-0.609,-0.488,-0.427,-0.3415,-0.345,-0.325,-0.2645,-0.377,0.085,0.0675,0.0155
-1.1435,-1.07,0.0735,1.107,-0.609,-0.4985,-0.426,-0.3355,-0.3415,-0.3235,-0.2645,-0.3755,0.086,0.051,0.0105
-1.121,-1.062,0.0585,1.0915,-0.59,-0.5015,-0.435,-0.3415,-0.3485,-0.327,-0.267,-0.379,0.083,0.0535,0.0045
-1.104,-1.0495,0.0545,1.077,-0.5795,-0.4975,-0.434,-0.341,-0.3495,-0.3285,-0.2685,-0.3785,0.084,0.056,0.01
-1.076,-1.0375,0.0385,1.057,-0.5575,-0.4995,-0.432,-0.342,-0.3505,-0.3315,-0.274,-0.381,0.085,0.053,0.0075
-1.094,-1.049,0.045,1.072,-0.57,-0.502,-0.437,-0.348,-0.3575,-0.34,-0.2825,-0.39,0.0815,0.0545,0.0025
-1.1065,-1.0495,0.0565,1.0785,-0.582,-0.4965,-0.439,-0.3505,-0.36,-0.3425,-0.2855,-0.391,0.0835,0.0625,0.005
-1.093,-1.037,0.056,1.065,-0.575,-0.4905,-0.4355,-0.347,-0.367,-0.3475,-0.291,-0.393,0.0805,0.074,0.01
-1.0995,-1.04,0.0595,1.07,-0.5795,-0.4905,-0.4435,-0.3485,-0.3655,-0.353,-0.297,-0.3975,0.082,0.0825,0.0065
-1.1005,-1.045,0.0555,1.073,-0.578,-0.495,-0.455,-0.3625,-0.3735,-0.3615,-0.3065,-0.4065,0.0845,0.079,0.0065
-1.153,-1.0495,0.1035,1.1015,-0.6285,-0.473,-0.445,-0.3575,-0.3685,-0.3545,-0.2985,-0.4005,0.0845,0.089,0.012
-1.1615,-1.0375,0.124,1.1,-0.643,-0.457,-0.438,-0.347,-0.3615,-0.348,-0.293,-0.3955,0.0845,0.1085,0.0135
-1.134,-1.034,0.1,1.084,-0.617,-0.467,-0.4405,-0.348,-0.362,-0.3495,-0.2955,-0.3975,0.087,0.106,0.014
-1.1475,-1.0415,0.106,1.095,-0.627,-0.4675,-0.438,-0.3405,-0.352,-0.3455,-0.288,-0.393,0.0885,0.1035,0.0115
-1.116,-1.0405,0.0755,1.0785,-0.596,-0.4825,-0.45,-0.3585,-0.374,-0.364,-0.3055,-0.41,0.0835,0.094,0.0085
-1.0985,-1.0255,0.073,1.062,-0.586,-0.476,-0.451,-0.364,-0.3765,-0.3655,-0.309,-0.415,0.0845,0.0945,0.0045
-1.103,-1.0145,0.0885,1.0585,-0.596,-0.463,-0.437,-0.3485,-0.3625,-0.3515,-0.295,-0.3985,0.0845,0.098,0.0095
-1.0975,-1.0325,0.065,1.065,-0.5815,-0.4835,-0.4455,-0.36,-0.3765,-0.3595,-0.3015,-0.4,0.083,0.0775,0.013
-1.089,-1.0365,0.052,1.063,-0.571,-0.492,-0.4465,-0.365,-0.379,-0.36,-0.3,-0.398,0.083,0.072,0.012
-1.052,-1.019,0.033,1.0355,-0.5425,-0.493,-0.4345,-0.358,-0.3755,-0.3505,-0.2895,-0.386,0.0825,0.066,0.015
-1.03,-1.0105,0.0195,1.0205,-0.525,-0.4955,-0.439,-0.3625,-0.384,-0.3575,-0.2935,-0.3925,0.0825,0.0555,0.015
-1.0315,-1.018,0.0135,1.025,-0.523,-0.502,-0.443,-0.3675,-0.385,-0.3615,-0.297,-0.3995,0.0825,0.067,0.0125
-1.0915,-1.024,0.0675,1.058,-0.58,-0.4785,-0.4205,-0.3485,-0.3625,-0.339,-0.2735,-0.3765,0.0815,0.0755,0.0115
-1.1525,-1.0535,0.0985,1.1035,-0.6255,-0.4775,-0.4155,-0.347,-0.3575,-0.335,-0.2695,-0.372,0.0825,0.0505,0.011
-1.1415,-1.068,0.0735,1.105,-0.608,-0.4975,-0.424,-0.359,-0.365,-0.343,-0.2785,-0.378,0.0825,0.035,0.009
-1.1205,-1.0525,0.068,1.087,-0.5945,-0.4925,-0.422,-0.3615,-0.361,-0.341,-0.277,-0.3755,0.08,0.043,0.011
-1.095,-1.044,0.051,1.07,-0.5735,-0.497,-0.4215,-0.363,-0.3645,-0.3445,-0.28,-0.378,0.08,0.0505,0.015
-1.0835,-1.0515,0.032,1.068,-0.558,-0.5095,-0.4405,-0.378,-0.386,-0.367,-0.302,-0.395,0.08,0.0725,0.0195
-1.115,-1.0645,0.0505,1.09,-0.583,-0.507,-0.451,-0.3845,-0.393,-0.3785,-0.315,-0.4065,0.079,0.0805,0.0175
-1.123,-1.0035,0.12,1.0635,-0.622,-0.442,-0.4145,-0.34,-0.35,-0.3375,-0.2755,-0.365,0.077,0.0795,0.0115
-1.085,-0.955,0.13,1.02,-0.608,-0.4125,-0.3985,-0.324,-0.3345,-0.322,-0.261,-0.349,0.075,0.0935,0.0135
-1.0795,-0.973,0.1065,1.0265,-0.5935,-0.433,-0.4165,-0.3405,-0.35,-0.3405,-0.279,-0.3655,0.0765,0.0965,0.0145
-1.0925,-0.9815,0.111,1.037,-0.602,-0.4355,-0.422,-0.3405,-0.352,-0.344,-0.2845,-0.3695,0.0775,0.0945,0.0095
-1.0945,-1.0005,0.094,1.0475,-0.5945,-0.453,-0.427,-0.3485,-0.366,-0.3565,-0.2955,-0.3825,0.0735,0.087,0.01
-1.099,-1.006,0.093,1.0525,-0.5965,-0.4565,-0.4315,-0.362,-0.3755,-0.3635,-0.2995,-0.387,0.0745,0.088,0.019
-1.1075,-0.996,0.1115,1.052,-0.61,-0.442,-0.437,-0.3675,-0.379,-0.364,-0.295,-0.384,0.0755,0.0955,0.024
-1.088,-0.998,0.09,1.0435,-0.5895,-0.454,-0.446,-0.3745,-0.388,-0.3695,-0.296,-0.3885,0.0735,0.0925,0.024
-1.055,-0.9985,0.0565,1.027,-0.556,-0.471,-0.4475,-0.381,-0.3975,-0.3765,-0.3015,-0.395,0.075,0.0865,0.0245
-1.065,-1.0125,0.052,1.039,-0.559,-0.48,-0.442,-0.377,-0.39,-0.368,-0.2915,-0.3865,0.0775,0.068,0.023
-1.0855,-1.02,0.0655,1.053,-0.5755,-0.477,-0.4215,-0.357,-0.368,-0.344,-0.2705,-0.367,0.0785,0.059,0.0185
-1.1025,-1.0165,0.086,1.06,-0.5945,-0.4655,-0.416,-0.3505,-0.366,-0.3405,-0.2685,-0.3645,0.0775,0.064,0.0195
-1.1075,-1.015,0.092,1.0615,-0.6,-0.4615,-0.418,-0.352,-0.368,-0.3425,-0.271,-0.3665,0.0775,0.0685,0.023
-1.0915,-1.0055,0.0855,1.0485,-0.5885,-0.46,-0.407,-0.3455,-0.363,-0.3405,-0.2705,-0.365,0.077,0.06,0.0205
-1.0815,-0.995,0.0865,1.0385,-0.584,-0.4545,-0.4065,-0.3415,-0.361,-0.342,-0.269,-0.364,0.078,0.0555,0.022
-1.09,-1.0025,0.088,1.0465,-0.5895,-0.457,-0.4195,-0.3565,-0.375,-0.3535,-0.2775,-0.3745,0.0765,0.0705,0.024
-1.0865,-1.002,0.084,1.0445,-0.5855,-0.459,-0.425,-0.37,-0.382,-0.36,-0.2835,-0.381,0.0745,0.0745,0.02
-1.07,-0.991,0.079,1.0305,-0.5745,-0.456,-0.424,-0.3685,-0.3775,-0.3575,-0.2775,-0.378,0.0735,0.0775,0.017
-1.0815,-1.009,0.0725,1.0455,-0.5775,-0.468,-0.4325,-0.3715,-0.381,-0.3665,-0.2865,-0.387,0.0735,0.084,0.0175
-1.1095,-1.035,0.075,1.0725,-0.5925,-0.48,-0.4375,-0.375,-0.3895,-0.377,-0.297,-0.3955,0.0715,0.0915,0.0235
-1.1275,-1.0585,0.0695,1.093,-0.5985,-0.4945,-0.4445,-0.383,-0.406,-0.388,-0.306,-0.4045,0.0675,0.091,0.031
-1.119,-1.056,0.063,1.088,-0.5915,-0.4965,-0.454,-0.3925,-0.4115,-0.393,-0.3115,-0.4085,0.071,0.0835,0.034
-1.108,-1.037,0.0705,1.0725,-0.5895,-0.4835,-0.4485,-0.389,-0.402,-0.385,-0.3055,-0.399,0.073,0.0945,0.0285
-1.0685,-1.002,0.0665,1.0355,-0.5675,-0.4675,-0.435,-0.3745,-0.3935,-0.3765,-0.2975,-0.3905,0.072,0.0965,0.0245
-1.0475,-0.972,0.076,1.01,-0.562,-0.448,-0.4355,-0.374,-0.396,-0.381,-0.303,-0.395,0.0715,0.1,0.0225
-1.0825,-0.9805,0.102,1.032,-0.5925,-0.4395,-0.4375,-0.38,-0.399,-0.3825,-0.3065,-0.3965,0.0695,0.106,0.0205
-1.089,-0.987,0.102,1.0385,-0.596,-0.4425,-0.435,-0.3825,-0.4015,-0.3815,-0.3045,-0.3935,0.072,0.097,0.019
-1.082,-0.9965,0.0855,1.0395,-0.584,-0.4555,-0.4305,-0.38,-0.3995,-0.3775,-0.3005,-0.3905,0.071,0.083,0.0125
-1.0925,-1.018,0.0745,1.0555,-0.5835,-0.472,-0.4275,-0.379,-0.4005,-0.3795,-0.3035,-0.3925,0.07,0.079,0.017
-1.091,-1.0115,0.0795,1.0515,-0.5855,-0.466,-0.427,-0.378,-0.3995,-0.376,-0.2995,-0.39,0.0715,0.081,0.022
-1.061,-0.981,0.08,1.021,-0.5705,-0.4505,-0.42,-0.3665,-0.384,-0.3585,-0.2825,-0.374,0.071,0.0715,0.0215
-1.0605,-0.9895,0.0705,1.025,-0.5655,-0.4595,-0.4245,-0.3685,-0.384,-0.36,-0.2845,-0.3735,0.0715,0.065,0.028
-1.067,-1.0025,0.065,1.035,-0.566,-0.469,-0.434,-0.378,-0.392,-0.368,-0.2935,-0.384,0.0705,0.0625,0.0265
-1.0655,-0.9845,0.081,1.0255,-0.5735,-0.452,-0.4215,-0.367,-0.383,-0.3585,-0.284,-0.374,0.0715,0.0695,0.029
-1.048,-0.985,0.063,1.0165,-0.5555,-0.461,-0.407,-0.3595,-0.3765,-0.351,-0.2745,-0.365,0.0725,0.0585,0.0295
-1.0555,-1.0055,0.05,1.0305,-0.553,-0.4775,-0.409,-0.36,-0.3755,-0.3495,-0.2725,-0.3635,0.073,0.0595,0.0265
-1.0765,-1.0095,0.067,1.0435,-0.572,-0.4715,-0.4155,-0.366,-0.379,-0.352,-0.2725,-0.364,0.0725,0.067,0.0355
-1.062,-1.0065,0.0555,1.0345,-0.559,-0.4755,-0.426,-0.377,-0.3905,-0.365,-0.2835,-0.376,0.073,0.067,0.0355
-1.0815,-0.9985,0.083,1.04,-0.5825,-0.4575,-0.415,-0.365,-0.3835,-0.361,-0.28,-0.3715,0.0745,0.0765,0.0295
-1.0535,-1.0025,0.0515,1.0285,-0.553,-0.4755,-0.422,-0.3775,-0.4015,-0.3775,-0.294,-0.383,0.073,0.0705,0.0265
-1.065,-1.016,0.049,1.0405,-0.557,-0.4835,-0.429,-0.3855,-0.407,-0.381,-0.297,-0.3845,0.073,0.077,0.0265
-1.089,-1.016,0.073,1.0525,-0.581,-0.4715,-0.4215,-0.379,-0.4005,-0.375,-0.288,-0.3785,0.073,0.079,0.0275
-1.07,-1.0185,0.051,1.0445,-0.561,-0.4835,-0.4245,-0.3825,-0.412,-0.386,-0.3015,-0.392,0.0725,0.0805,0.0245
-1.082,-1.012,0.07,1.047,-0.576,-0.471,-0.421,-0.3825,-0.4155,-0.3885,-0.304,-0.3915,0.0745,0.096,0.029
-1.076,-1.0175,0.059,1.047,-0.568,-0.4795,-0.435,-0.3965,-0.4315,-0.4,-0.3125,-0.3975,0.0735,0.086,0.0325
-1.073,-1.0225,0.051,1.048,-0.5625,-0.4855,-0.4425,-0.402,-0.432,-0.3975,-0.3115,-0.396,0.0725,0.072,0.0315
-1.0645,-1.021,0.0435,1.043,-0.5545,-0.4885,-0.4595,-0.413,-0.438,-0.4055,-0.314,-0.4015,0.0695,0.0865,0.032
-1.1575,-1.018,0.1395,1.088,-0.6485,-0.4395,-0.4335,-0.387,-0.4075,-0.375,-0.284,-0.372,0.0685,0.0895,0.029
-1.15,-0.9995,0.1505,1.075,-0.6505,-0.4245,-0.4135,-0.37,-0.389,-0.357,-0.2675,-0.358,0.071,0.0755,0.0345
-1.042,-1.008,0.0335,1.025,-0.538,-0.4875,-0.447,-0.401,-0.4205,-0.39,-0.299,-0.3895,0.069,0.06,0.0415
-1.068,-1.0135,0.054,1.041,-0.561,-0.48,-0.4365,-0.398,-0.408,-0.377,-0.288,-0.3775,0.07,0.058,0.0375
-1.1095,-1.0215,0.0875,1.066,-0.5985,-0.467,-0.422,-0.3895,-0.3995,-0.3685,-0.2795,-0.373,0.0685,0.0605,0.033
-1.127,-1.035,0.092,1.0815,-0.61,-0.4715,-0.425,-0.387,-0.4025,-0.3745,-0.284,-0.3765,0.0695,0.06,0.03
-1.093,-1.0215,0.0715,1.0575,-0.5825,-0.475,-0.429,-0.388,-0.408,-0.378,-0.286,-0.377,0.0695,0.058,0.0265
-1.0985,-1.0045,0.094,1.0515,-0.5965,-0.455,-0.432,-0.3935,-0.4155,-0.381,-0.287,-0.3775,0.068,0.064,0.0355
-1.118,-0.997,0.121,1.058,-0.62,-0.438,-0.436,-0.3915,-0.416,-0.384,-0.2895,-0.3785,0.0695,0.078,0.041
-1.1015,-1.019,0.0825,1.0605,-0.5925,-0.468,-0.439,-0.3975,-0.4225,-0.394,-0.303,-0.392,0.0665,0.068,0.035
-1.0315,-1.015,0.017,1.0235,-0.5245,-0.499,-0.4575,-0.415,-0.4385,-0.412,-0.3205,-0.4115,0.064,0.073,0.028
-0.9655,-1.0005,-0.035,0.9835,-0.4655,-0.518,-0.467,-0.424,-0.4485,-0.423,-0.33,-0.421,0.064,0.0785,0.0245
-0.9435,-1.0115,-0.0685,0.9775,-0.4375,-0.54,-0.4775,-0.435,-0.459,-0.4335,-0.3425,-0.431,0.0655,0.076,0.028
-0.8915,-1.0055,-0.114,0.949,-0.389,-0.56,-0.501,-0.4565,-0.483,-0.458,-0.367,-0.453,0.065,0.09,0.03
-1.077,-0.9965,0.0805,1.0365,-0.579,-0.458,-0.443,-0.4025,-0.4315,-0.407,-0.3145,-0.3995,0.0645,0.107,0.031
-1.2865,-1.0015,0.285,1.1445,-0.786,-0.3585,-0.386,-0.3425,-0.374,-0.3515,-0.2575,-0.343,0.0655,0.1075,0.0305
-1.219,-1.024,0.1945,1.122,-0.707,-0.4145,-0.4165,-0.375,-0.4055,-0.3815,-0.2875,-0.3725,0.065,0.0915,0.0295
-1.1425,-1.0365,0.1065,1.0895,-0.625,-0.465,-0.447,-0.408,-0.439,-0.413,-0.3165,-0.4005,0.065,0.081,0.03
-1.127,-1.0295,0.098,1.0785,-0.613,-0.466,-0.4505,-0.41,-0.4455,-0.42,-0.3215,-0.4065,0.064,0.076,0.0325
-1.1225,-1.0135,0.109,1.0685,-0.6165,-0.4525,-0.441,-0.4015,-0.437,-0.4105,-0.313,-0.398,0.0635,0.082,0.0315
-1.126,-0.9965,0.13,1.0615,-0.6285,-0.4335,-0.4265,-0.389,-0.422,-0.396,-0.3005,-0.3835,0.066,0.0875,0.034
-1.1115,-0.999,0.1125,1.0555,-0.612,-0.443,-0.42,-0.38,-0.413,-0.3865,-0.292,-0.376,0.0665,0.0765,0.037
-1.113,-1.026,0.087,1.07,-0.6005,-0.4695,-0.418,-0.377,-0.4105,-0.384,-0.288,-0.3755,0.066,0.061,0.035
-1.118,-1.023,0.095,1.0705,-0.6065,-0.464,-0.4205,-0.381,-0.4165,-0.3885,-0.2935,-0.3825,0.0655,0.065,0.0375
-1.116,-1.018,0.098,1.067,-0.6075,-0.46,-0.4235,-0.384,-0.422,-0.393,-0.297,-0.3865,0.066,0.0735,0.039
-1.13,-1.0355,0.0945,1.083,-0.6125,-0.4705,-0.419,-0.381,-0.4165,-0.389,-0.2935,-0.384,0.064,0.063,0.038
-1.1035,-1.0195,0.084,1.062,-0.594,-0.4675,-0.414,-0.3765,-0.4075,-0.3805,-0.2865,-0.378,0.063,0.0575,0.0415
-1.0755,-1.004,0.071,1.04,-0.5735,-0.4665,-0.422,-0.384,-0.413,-0.386,-0.2915,-0.3825,0.067,0.071,0.0405
-1.068,-0.994,0.0735,1.031,-0.571,-0.46,-0.4315,-0.3955,-0.4265,-0.3995,-0.304,-0.3965,0.0675,0.0815,0.035
-1.07,-1.008,0.062,1.039,-0.5665,-0.473,-0.4355,-0.4,-0.4325,-0.4075,-0.311,-0.404,0.065,0.0815,0.038
-1.122,-1.032,0.09,1.0775,-0.6065,-0.471,-0.428,-0.3875,-0.4185,-0.395,-0.3005,-0.392,0.066,0.0755,0.041
-1.1665,-1.049,0.1175,1.108,-0.6425,-0.466,-0.4255,-0.3805,-0.4115,-0.3895,-0.293,-0.383,0.068,0.068,0.04
-1.1205,-1.018,0.1025,1.0695,-0.612,-0.458,-0.4255,-0.3815,-0.412,-0.389,-0.2895,-0.379,0.068,0.0695,0.0375
-1.0555,-0.963,0.0925,1.0095,-0.574,-0.4355,-0.419,-0.378,-0.4095,-0.3855,-0.283,-0.3725,0.0665,0.08,0.0405
-1.0675,-0.973,0.094,1.0205,-0.581,-0.4395,-0.4245,-0.388,-0.4255,-0.398,-0.2945,-0.38,0.064,0.0875,0.037
-1.0985,-1.0015,0.0965,1.05,-0.598,-0.4525,-0.4325,-0.4065,-0.447,-0.4175,-0.312,-0.3965,0.0655,0.0885,0.0375
-1.1295,-1.021,0.1085,1.0755,-0.619,-0.4565,-0.442,-0.419,-0.4565,-0.4265,-0.319,-0.402,0.0655,0.0885,0.044
-1.117,-1.0295,0.088,1.0735,-0.603,-0.4705,-0.4535,-0.4265,-0.465,-0.4325,-0.3255,-0.409,0.062,0.076,0.0415
-1.0595,-1.0395,0.02,1.0495,-0.54,-0.5095,-0.4755,-0.444,-0.481,-0.451,-0.344,-0.429,0.0625,0.0725,0.0425
-1.076,-1.025,0.051,1.0505,-0.5635,-0.487,-0.4665,-0.4315,-0.466,-0.438,-0.33,-0.4145,0.064,0.0835,0.0415
-1.118,-1.0175,0.1005,1.068,-0.6095,-0.4585,-0.451,-0.4175,-0.4535,-0.4255,-0.3185,-0.404,0.064,0.097,0.0405
-1.111,-1.014,0.097,1.063,-0.604,-0.459,-0.4475,-0.413,-0.4485,-0.422,-0.314,-0.4015,0.0635,0.096,0.04
-1.1035,-1.017,0.0865,1.0605,-0.595,-0.4655,-0.443,-0.409,-0.4435,-0.414,-0.3065,-0.3965,0.0625,0.079,0.0435
-1.058,-1.016,0.042,1.037,-0.5505,-0.487,-0.452,-0.416,-0.453,-0.423,-0.3185,-0.4055,0.064,0.076,0.0445
-1.011,-0.965,0.0455,0.988,-0.5285,-0.46,-0.434,-0.405,-0.439,-0.4095,-0.3065,-0.392,0.066,0.081,0.044
-1.0175,-0.9745,0.043,0.9965,-0.5305,-0.4655,-0.4345,-0.4065,-0.444,-0.413,-0.3105,-0.399,0.0665,0.0775,0.044
-1.029,-1.014,0.015,1.022,-0.5225,-0.4995,-0.446,-0.4125,-0.458,-0.4285,-0.3245,-0.415,0.0665,0.0685,0.0425
-1.074,-1.015,0.059,1.045,-0.5665,-0.478,-0.432,-0.405,-0.445,-0.4145,-0.31,-0.4015,0.065,0.079,0.043
-1.1145,-1.007,0.1075,1.061,-0.611,-0.45,-0.4175,-0.389,-0.4265,-0.398,-0.2955,-0.3865,0.065,0.084,0.0415
-1.094,-1.0025,0.092,1.0485,-0.593,-0.4555,-0.4205,-0.3885,-0.4225,-0.3985,-0.2965,-0.3855,0.065,0.072,0.0455
-1.0625,-0.984,0.0785,1.0235,-0.571,-0.4525,-0.4225,-0.392,-0.4265,-0.402,-0.299,-0.387,0.063,0.072,0.0495
-1.065,-0.9725,0.0925,1.019,-0.579,-0.44,-0.414,-0.386,-0.424,-0.3985,-0.2945,-0.3825,0.062,0.073,0.047
-1.082,-0.9875,0.0945,1.035,-0.5885,-0.4465,-0.4245,-0.394,-0.434,-0.408,-0.3045,-0.39,0.0635,0.0865,0.0435
-1.0925,-0.9945,0.0975,1.0435,-0.5955,-0.4485,-0.4465,-0.411,-0.4525,-0.426,-0.324,-0.406,0.065,0.1065,0.0485
-1.094,-1.0065,0.0875,1.0505,-0.591,-0.4595,-0.458,-0.4265,-0.467,-0.4375,-0.334,-0.4135,0.066,0.094,0.047
-1.088,-1.002,0.086,1.045,-0.587,-0.458,-0.4415,-0.413,-0.4555,-0.429,-0.326,-0.404,0.066,0.089,0.0425
-1.07,-0.975,0.095,1.023,-0.5825,-0.44,-0.4235,-0.3915,-0.431,-0.409,-0.3085,-0.389,0.0655,0.1025,0.043
-1.0715,-0.976,0.095,1.024,-0.5835,-0.4405,-0.421,-0.388,-0.4255,-0.4025,-0.2995,-0.3845,0.0675,0.092,0.044
-1.0855,-0.995,0.0905,1.0405,-0.5885,-0.452,-0.4285,-0.3945,-0.435,-0.412,-0.3065,-0.389,0.066,0.088,0.045
-1.0715,-1.002,0.0695,1.037,-0.571,-0.466,-0.4465,-0.406,-0.4435,-0.4195,-0.3135,-0.3985,0.0645,0.078,0.0415
-1.069,-1.002,0.067,1.0355,-0.568,-0.4675,-0.438,-0.3995,-0.435,-0.41,-0.304,-0.3915,0.0665,0.0625,0.0395
-1.0645,-1.0055,0.0595,1.0355,-0.5625,-0.473,-0.437,-0.407,-0.4485,-0.418,-0.3075,-0.3955,0.0665,0.067,0.039
-1.0725,-1.013,0.0595,1.043,-0.566,-0.477,-0.4505,-0.4275,-0.468,-0.4315,-0.317,-0.402,0.067,0.0645,0.0415
-1.0785,-1.0025,0.076,1.041,-0.5775,-0.4635,-0.4355,-0.416,-0.455,-0.4225,-0.3065,-0.3915,0.0675,0.0675,0.041
-1.089,-1.0025,0.0865,1.046,-0.588,-0.458,-0.4295,-0.406,-0.4465,-0.415,-0.301,-0.387,0.0655,0.0735,0.043
-1.1095,-1.014,0.0955,1.062,-0.6025,-0.459,-0.4275,-0.406,-0.4445,-0.413,-0.3015,-0.3865,0.064,0.0725,0.0435
-1.078,-0.9855,0.0925,1.032,-0.5855,-0.4465,-0.4235,-0.4035,-0.4425,-0.4105,-0.3005,-0.3865,0.063,0.089,0.046
-1.0625,-0.984,0.0785,1.0235,-0.571,-0.453,-0.4365,-0.41,-0.4485,-0.4175,-0.31,-0.3935,0.064,0.0845,0.051
-1.059,-0.9835,0.0755,1.0215,-0.5675,-0.454,-0.4335,-0.407,-0.446,-0.4165,-0.3075,-0.3925,0.064,0.0825,0.051
-1.0495,-0.956,0.0935,1.003,-0.5715,-0.4315,-0.419,-0.391,-0.4305,-0.4,-0.2915,-0.3765,0.062,0.097,0.0505
-1.0645,-0.965,0.0995,1.015,-0.5825,-0.4325,-0.4215,-0.3915,-0.432,-0.405,-0.2955,-0.38,0.062,0.0815,0.0445
-1.0815,-0.984,0.097,1.033,-0.5895,-0.4435,-0.4285,-0.395,-0.4415,-0.4135,-0.301,-0.388,0.0605,0.0705,0.045
-1.0455,-0.985,0.06,1.0155,-0.553,-0.4625,-0.4375,-0.4035,-0.4545,-0.4255,-0.3125,-0.3975,0.061,0.0845,0.0455
-1.0175,-0.9725,0.045,0.9955,-0.5315,-0.464,-0.4465,-0.4125,-0.465,-0.436,-0.323,-0.4065,0.062,0.1035,0.0495
-1.059,-0.985,0.074,1.022,-0.5665,-0.4555,-0.446,-0.4125,-0.469,-0.438,-0.325,-0.408,0.061,0.114,0.0515
-1.078,-0.997,0.081,1.0375,-0.58,-0.458,-0.447,-0.4175,-0.476,-0.447,-0.3335,-0.4145,0.0635,0.1125,0.046
-1.075,-0.9875,0.088,1.0315,-0.5815,-0.45,-0.447,-0.415,-0.4705,-0.443,-0.3295,-0.4105,0.064,0.1115,0.047
-1.091,-0.9995,0.092,1.0455,-0.592,-0.4535,-0.447,-0.4205,-0.4715,-0.444,-0.3305,-0.4145,0.062,0.108,0.047
-1.0965,-1.0065,0.09,1.0515,-0.5935,-0.458,-0.445,-0.4265,-0.473,-0.443,-0.3305,-0.4145,0.0635,0.091,0.047
-1.0915,-1.009,0.0825,1.0505,-0.587,-0.4635,-0.438,-0.425,-0.461,-0.4325,-0.3205,-0.4075,0.062,0.084,0.041
-1.0705,-0.975,0.0955,1.023,-0.583,-0.44,-0.4075,-0.396,-0.436,-0.406,-0.2935,-0.3835,0.06,0.086,0.0435
-1.037,-0.9305,0.1065,0.984,-0.572,-0.412,-0.394,-0.3745,-0.4235,-0.3915,-0.2775,-0.3675,0.062,0.0875,0.0485
-1.0575,-0.9535,0.104,1.0055,-0.581,-0.4245,-0.411,-0.385,-0.4325,-0.399,-0.2865,-0.376,0.062,0.087,0.047
-1.051,-0.986,0.065,1.019,-0.5585,-0.4605,-0.4435,-0.413,-0.4535,-0.4185,-0.306,-0.3945,0.0615,0.0775,0.0525
-1.0,-0.9825,0.0175,0.9915,-0.509,-0.4825,-0.4565,-0.4285,-0.465,-0.4325,-0.318,-0.4075,0.0615,0.0705,0.051
-1.0115,-0.9565,0.0545,0.9845,-0.5335,-0.451,-0.434,-0.4065,-0.443,-0.411,-0.298,-0.3875,0.0615,0.066,0.0505
-0.9985,-0.96,0.0385,0.9795,-0.5185,-0.461,-0.4485,-0.4195,-0.4555,-0.424,-0.311,-0.402,0.0615,0.07,0.052
-0.943,-0.9625,-0.019,0.953,-0.462,-0.4905,-0.457,-0.4355,-0.4745,-0.442,-0.33,-0.421,0.061,0.0775,0.0495
-1.062,-0.9755,0.087,1.019,-0.5745,-0.444,-0.4245,-0.4075,-0.4405,-0.408,-0.3,-0.3885,0.0615,0.0755,0.048
-1.2135,-1.005,0.2085,1.1095,-0.711,-0.3985,-0.398,-0.373,-0.407,-0.3755,-0.266,-0.3555,0.062,0.0895,0.0465
-1.1075,-1.0025,0.105,1.055,-0.6065,-0.4485,-0.439,-0.406,-0.4455,-0.414,-0.304,-0.393,0.062,0.0925,0.0495
-1.0105,-1.0005,0.01,1.006,-0.5105,-0.495,-0.4795,-0.4485,-0.4875,-0.4575,-0.347,-0.433,0.0605,0.079,0.0485
-1.0495,-0.9695,0.08,1.0095,-0.5645,-0.445,-0.449,-0.422,-0.4585,-0.428,-0.316,-0.4015,0.0605,0.0875,0.051
-1.092,-0.949,0.143,1.0205,-0.618,-0.403,-0.4245,-0.4015,-0.4365,-0.407,-0.296,-0.3805,0.0625,0.0895,0.05
-1.102,-0.962,0.1405,1.0325,-0.6215,-0.411,-0.428,-0.402,-0.445,-0.4165,-0.306,-0.3895,0.0615,0.085,0.0465
