i,ii,iii,avr,avl,avf,v1,v2,v3,v4,v5,v6,vx,vy,vz
0.0185,-0.355,-0.373,0.168,0.196,-0.364,-0.0425,0.1725,0.1285,-0.2585,-0.385,-0.5015,0.129,-0.436,0.1475
0.027,-0.349,-0.3755,0.1605,0.2015,-0.362,-0.0485,0.172,0.1285,-0.261,-0.386,-0.503,0.1315,-0.4315,0.15
0.028,-0.3475,-0.375,0.159,0.202,-0.3615,-0.0485,0.1735,0.1305,-0.261,-0.3855,-0.504,0.1315,-0.4265,0.1495
0.026,-0.3475,-0.373,0.1605,0.2,-0.36,-0.05,0.17,0.1285,-0.2605,-0.385,-0.503,0.132,-0.4335,0.149
0.0215,-0.35,-0.371,0.164,0.1965,-0.3605,-0.05,0.169,0.1265,-0.2615,-0.386,-0.5035,0.1305,-0.438,0.1495
0.021,-0.352,-0.3725,0.1655,0.197,-0.362,-0.047,0.17,0.1275,-0.2615,-0.388,-0.5035,0.129,-0.4375,0.148
0.0195,-0.3525,-0.371,0.1665,0.1955,-0.362,-0.0445,0.1735,0.13,-0.26,-0.3855,-0.5025,0.1285,-0.4405,0.148
0.0155,-0.354,-0.369,0.169,0.1925,-0.3615,-0.0425,0.173,0.1295,-0.259,-0.3835,-0.5015,0.1285,-0.4345,0.1455
0.021,-0.3525,-0.3725,0.1655,0.197,-0.3625,-0.0445,0.1705,0.129,-0.2585,-0.384,-0.5005,0.1295,-0.435,0.146
0.0175,-0.3535,-0.3705,0.1675,0.1945,-0.362,-0.0435,0.172,0.128,-0.2595,-0.385,-0.5015,0.1295,-0.436,0.148
0.011,-0.356,-0.3665,0.172,0.189,-0.361,-0.04,0.172,0.1275,-0.2585,-0.384,-0.5015,0.129,-0.435,0.1465
0.0175,-0.354,-0.3705,0.168,0.194,-0.3625,-0.04,0.174,0.1305,-0.256,-0.381,-0.4985,0.1305,-0.4375,0.149
0.0205,-0.351,-0.371,0.165,0.196,-0.3605,-0.044,0.174,0.1305,-0.255,-0.3815,-0.497,0.1315,-0.442,0.1495
0.022,-0.3475,-0.369,0.1625,0.1955,-0.3585,-0.0465,0.175,0.13,-0.256,-0.3815,-0.4975,0.1315,-0.4445,0.149
0.0175,-0.35,-0.3665,0.166,0.1925,-0.358,-0.045,0.173,0.1295,-0.2585,-0.3825,-0.5,0.1295,-0.44,0.1475
0.012,-0.3545,-0.366,0.171,0.189,-0.36,-0.0455,0.17,0.126,-0.262,-0.3865,-0.504,0.1265,-0.4405,0.146
0.0135,-0.3545,-0.3675,0.17,0.191,-0.361,-0.046,0.1705,0.123,-0.2645,-0.3875,-0.506,0.127,-0.4335,0.1465
0.0115,-0.3555,-0.3665,0.172,0.1895,-0.361,-0.045,0.1685,0.1245,-0.2635,-0.3865,-0.505,0.127,-0.431,0.147
0.0085,-0.358,-0.3665,0.1745,0.188,-0.3625,-0.0465,0.1675,0.1255,-0.262,-0.387,-0.504,0.1265,-0.435,0.147
0.0115,-0.3555,-0.366,0.1715,0.189,-0.3605,-0.0465,0.1685,0.125,-0.2615,-0.386,-0.503,0.128,-0.436,0.147
0.0205,-0.3475,-0.3675,0.1635,0.194,-0.3575,-0.045,0.171,0.1265,-0.2605,-0.3845,-0.5015,0.13,-0.439,0.1475
0.0245,-0.3445,-0.3685,0.1595,0.197,-0.3565,-0.044,0.1735,0.1275,-0.259,-0.383,-0.5005,0.131,-0.4385,0.1465
0.0265,-0.344,-0.37,0.1585,0.1985,-0.357,-0.0465,0.1695,0.127,-0.2615,-0.3845,-0.501,0.131,-0.4385,0.1475
0.0245,-0.3465,-0.3705,0.161,0.198,-0.3585,-0.0465,0.1705,0.1255,-0.26,-0.384,-0.5015,0.131,-0.4395,0.148
0.0185,-0.351,-0.369,0.166,0.194,-0.36,-0.042,0.1725,0.128,-0.261,-0.383,-0.502,0.129,-0.438,0.1475
0.0205,-0.3515,-0.3715,0.165,0.1965,-0.3615,-0.043,0.1705,0.1265,-0.262,-0.383,-0.5005,0.1295,-0.4335,0.1475
0.017,-0.3535,-0.3695,0.168,0.1935,-0.3615,-0.042,0.1715,0.1265,-0.2595,-0.3825,-0.4995,0.1295,-0.4295,0.1475
0.015,-0.355,-0.3695,0.1695,0.1925,-0.3625,-0.0415,0.1695,0.127,-0.2615,-0.385,-0.5015,0.1275,-0.4275,0.1455
0.018,-0.3555,-0.373,0.1685,0.1955,-0.364,-0.0425,0.1705,0.127,-0.261,-0.382,-0.501,0.129,-0.441,0.1455
0.0175,-0.355,-0.372,0.1685,0.195,-0.3635,-0.0435,0.1715,0.1285,-0.2605,-0.3825,-0.5005,0.1295,-0.4455,0.149
0.0145,-0.3585,-0.3725,0.1715,0.194,-0.3655,-0.044,0.1695,0.1255,-0.261,-0.384,-0.5015,0.129,-0.442,0.15
0.0115,-0.36,-0.371,0.174,0.1915,-0.3655,-0.0425,0.1705,0.126,-0.261,-0.382,-0.501,0.129,-0.44,0.1485
0.0105,-0.3605,-0.3705,0.1745,0.191,-0.365,-0.042,0.17,0.127,-0.262,-0.384,-0.5025,0.127,-0.4395,0.149
0.015,-0.3585,-0.3725,0.1715,0.194,-0.3655,-0.0435,0.1675,0.125,-0.262,-0.384,-0.5035,0.1275,-0.441,0.147
0.021,-0.3525,-0.373,0.1655,0.1975,-0.3625,-0.0455,0.1685,0.125,-0.262,-0.384,-0.502,0.13,-0.437,0.1465
0.0165,-0.3535,-0.3695,0.1685,0.193,-0.3615,-0.0445,0.169,0.125,-0.2635,-0.3845,-0.5025,0.128,-0.4415,0.147
0.014,-0.355,-0.368,0.1705,0.191,-0.3615,-0.046,0.1655,0.1235,-0.2655,-0.387,-0.5035,0.1285,-0.443,0.1485
0.0135,-0.3535,-0.366,0.1695,0.19,-0.3595,-0.046,0.1665,0.124,-0.2625,-0.3865,-0.5035,0.128,-0.44,0.149
0.013,-0.353,-0.365,0.1695,0.1895,-0.359,-0.0455,0.1665,0.126,-0.2635,-0.3845,-0.5035,0.126,-0.435,0.147
0.012,-0.3545,-0.366,0.171,0.189,-0.36,-0.0445,0.167,0.1275,-0.2605,-0.3835,-0.5015,0.1275,-0.433,0.147
0.015,-0.3525,-0.367,0.1685,0.1915,-0.3595,-0.044,0.1695,0.126,-0.2585,-0.384,-0.4995,0.1295,-0.438,0.1455
0.0225,-0.3485,-0.3705,0.1625,0.197,-0.3595,-0.047,0.169,0.1255,-0.261,-0.3845,-0.5015,0.13,-0.4375,0.146
0.022,-0.348,-0.369,0.1625,0.196,-0.3585,-0.047,0.1695,0.128,-0.2585,-0.3815,-0.5005,0.131,-0.437,0.146
0.019,-0.3505,-0.369,0.1655,0.1945,-0.36,-0.0465,0.1675,0.1245,-0.261,-0.383,-0.501,0.129,-0.439,0.147
0.0175,-0.3515,-0.368,0.1665,0.193,-0.3595,-0.0435,0.168,0.124,-0.2615,-0.383,-0.5025,0.1275,-0.4415,0.1475
0.0165,-0.353,-0.3685,0.168,0.193,-0.361,-0.0445,0.1665,0.125,-0.261,-0.384,-0.501,0.1285,-0.439,0.147
0.0165,-0.3555,-0.3715,0.1695,0.194,-0.3635,-0.0445,0.1665,0.1245,-0.2605,-0.3825,-0.5005,0.1285,-0.431,0.146
0.0225,-0.35,-0.372,0.1635,0.1975,-0.361,-0.044,0.1695,0.1255,-0.2595,-0.381,-0.4995,0.1295,-0.4295,0.1455
0.0245,-0.3505,-0.3745,0.1625,0.1995,-0.3625,-0.0445,0.1705,0.126,-0.258,-0.379,-0.4975,0.131,-0.433,0.146
0.0195,-0.352,-0.3705,0.166,0.195,-0.3615,-0.0425,0.1715,0.1275,-0.256,-0.379,-0.498,0.13,-0.439,0.1465
0.015,-0.3535,-0.3685,0.169,0.192,-0.361,-0.042,0.1685,0.1255,-0.258,-0.3815,-0.5005,0.1255,-0.446,0.1485
0.014,-0.3575,-0.3705,0.1715,0.1925,-0.364,-0.04,0.1685,0.124,-0.2565,-0.3815,-0.499,0.1265,-0.443,0.1485
0.0115,-0.3575,-0.3685,0.1725,0.1905,-0.363,-0.04,0.1705,0.125,-0.256,-0.3815,-0.4975,0.127,-0.441,0.148
0.015,-0.3555,-0.37,0.17,0.1925,-0.363,-0.0415,0.1705,0.1235,-0.2565,-0.379,-0.4975,0.128,-0.442,0.147
0.018,-0.352,-0.3695,0.167,0.194,-0.361,-0.0415,0.1695,0.125,-0.257,-0.3805,-0.497,0.1295,-0.437,0.147
0.0145,-0.352,-0.366,0.1685,0.1905,-0.359,-0.0415,0.1665,0.124,-0.2585,-0.382,-0.4995,0.1265,-0.437,0.146
0.015,-0.3515,-0.366,0.168,0.1905,-0.3585,-0.04,0.168,0.124,-0.259,-0.3825,-0.501,0.1265,-0.434,0.1455
0.0175,-0.352,-0.369,0.167,0.1935,-0.3605,-0.0415,0.169,0.125,-0.259,-0.382,-0.499,0.1285,-0.433,0.148
0.0235,-0.35,-0.373,0.163,0.1985,-0.3615,-0.0465,0.1685,0.1235,-0.2595,-0.384,-0.4995,0.129,-0.435,0.148
0.025,-0.3475,-0.372,0.161,0.199,-0.3595,-0.047,0.169,0.1245,-0.2595,-0.3925,-0.4995,0.127,-0.4295,0.1485
0.025,-0.3475,-0.372,0.161,0.199,-0.36,-0.0475,0.167,0.1235,-0.261,-0.3965,-0.5,0.127,-0.4295,0.1475
0.02,-0.348,-0.367,0.164,0.1935,-0.3575,-0.046,0.1655,0.1255,-0.2615,-0.4,-0.501,0.125,-0.4355,0.148
0.014,-0.35,-0.364,0.1675,0.189,-0.357,-0.0435,0.166,0.1225,-0.2625,-0.399,-0.501,0.1245,-0.4425,0.1495
0.0185,-0.348,-0.366,0.1645,0.192,-0.357,-0.0445,0.167,0.1215,-0.2605,-0.3915,-0.5,0.127,-0.44,0.1485
0.0175,-0.35,-0.3665,0.166,0.192,-0.358,-0.044,0.1685,0.1245,-0.259,-0.387,-0.498,0.1265,-0.4365,0.1475
0.016,-0.3515,-0.3665,0.1675,0.1915,-0.3585,-0.042,0.169,0.124,-0.2595,-0.385,-0.4975,0.1265,-0.4345,0.148
0.0165,-0.3515,-0.3675,0.1675,0.1925,-0.3595,-0.0415,0.1695,0.124,-0.26,-0.384,-0.4975,0.1275,-0.4325,0.148
0.018,-0.355,-0.3725,0.1685,0.1955,-0.364,-0.045,0.1645,0.1195,-0.264,-0.3875,-0.5015,0.1265,-0.439,0.147
0.0175,-0.355,-0.3715,0.1685,0.1945,-0.3635,-0.045,0.166,0.121,-0.263,-0.3865,-0.501,0.1255,-0.4415,0.148
0.012,-0.355,-0.3665,0.1715,0.1895,-0.361,-0.043,0.168,0.1235,-0.26,-0.3825,-0.498,0.127,-0.436,0.147
0.009,-0.3565,-0.3655,0.1735,0.1875,-0.361,-0.0435,0.1685,0.123,-0.2585,-0.382,-0.499,0.1265,-0.435,0.146
0.0085,-0.3575,-0.366,0.1745,0.1875,-0.362,-0.043,0.168,0.124,-0.26,-0.3835,-0.498,0.127,-0.4365,0.1475
0.011,-0.3585,-0.369,0.174,0.1905,-0.364,-0.0425,0.1675,0.1245,-0.26,-0.3825,-0.4985,0.1285,-0.433,0.1455
0.0145,-0.358,-0.372,0.1715,0.1935,-0.365,-0.0435,0.1695,0.126,-0.2585,-0.381,-0.4985,0.129,-0.4345,0.1455
0.013,-0.3595,-0.372,0.173,0.1925,-0.366,-0.044,0.1635,0.122,-0.263,-0.383,-0.501,0.128,-0.437,0.1465
0.0055,-0.3595,-0.3645,0.177,0.185,-0.362,-0.0445,0.1625,0.12,-0.264,-0.385,-0.5025,0.125,-0.432,0.146
0.0075,-0.357,-0.364,0.1745,0.186,-0.3605,-0.0455,0.163,0.1205,-0.264,-0.385,-0.502,0.1245,-0.435,0.146
0.019,-0.356,-0.374,0.168,0.197,-0.365,-0.047,0.1615,0.1205,-0.264,-0.3855,-0.503,0.126,-0.438,0.146
0.0225,-0.352,-0.374,0.1645,0.1985,-0.363,-0.0465,0.164,0.1225,-0.2645,-0.3835,-0.502,0.1245,-0.431,0.146
0.0185,-0.352,-0.37,0.1665,0.1945,-0.361,-0.042,0.1655,0.1245,-0.2615,-0.3805,-0.4995,0.126,-0.4335,0.1455
0.017,-0.3505,-0.367,0.1665,0.192,-0.3585,-0.0405,0.1655,0.124,-0.26,-0.3785,-0.4985,0.127,-0.438,0.1445
0.019,-0.348,-0.3665,0.1645,0.193,-0.3575,-0.0425,0.166,0.1245,-0.2605,-0.3785,-0.499,0.1275,-0.4415,0.1455
0.0175,-0.351,-0.368,0.1665,0.193,-0.3595,-0.0435,0.165,0.123,-0.26,-0.38,-0.4995,0.128,-0.444,0.1465
0.02,-0.3505,-0.3695,0.165,0.195,-0.36,-0.045,0.164,0.121,-0.262,-0.381,-0.5,0.1265,-0.439,0.146
0.0195,-0.351,-0.3695,0.1655,0.195,-0.36,-0.0435,0.1665,0.124,-0.264,-0.38,-0.4995,0.1265,-0.4335,0.1465
0.021,-0.351,-0.3715,0.165,0.1965,-0.3615,-0.0435,0.168,0.124,-0.2625,-0.3795,-0.4975,0.1285,-0.4345,0.147
0.021,-0.3505,-0.371,0.165,0.196,-0.361,-0.0425,0.1675,0.1235,-0.2615,-0.38,-0.4975,0.1275,-0.437,0.1455
0.0145,-0.352,-0.366,0.1685,0.1905,-0.359,-0.042,0.1655,0.1225,-0.2625,-0.38,-0.5,0.1255,-0.4375,0.146
0.017,-0.3535,-0.37,0.168,0.1935,-0.362,-0.043,0.1655,0.122,-0.2615,-0.3815,-0.4985,0.1265,-0.4385,0.146
0.015,-0.3535,-0.368,0.169,0.192,-0.361,-0.0435,0.1655,0.12,-0.262,-0.3815,-0.5,0.125,-0.4335,0.1455
0.015,-0.354,-0.368,0.169,0.192,-0.361,-0.044,0.165,0.123,-0.2605,-0.381,-0.4995,0.1245,-0.434,0.1455
0.0175,-0.352,-0.3685,0.167,0.1935,-0.3605,-0.0445,0.1655,0.1225,-0.258,-0.379,-0.497,0.1275,-0.4315,0.146
0.018,-0.351,-0.368,0.1665,0.1935,-0.3595,-0.044,0.168,0.1225,-0.2595,-0.3785,-0.498,0.127,-0.4305,0.1455
0.017,-0.3505,-0.367,0.1665,0.1925,-0.3585,-0.0435,0.1675,0.1245,-0.257,-0.3755,-0.4955,0.128,-0.4335,0.1445
0.014,-0.351,-0.365,0.1685,0.1895,-0.358,-0.042,0.1685,0.123,-0.2595,-0.378,-0.4975,0.127,-0.438,0.144
0.013,-0.354,-0.3665,0.1705,0.19,-0.36,-0.0385,0.1705,0.1285,-0.261,-0.3825,-0.5015,0.1225,-0.4405,0.144
0.015,-0.3475,-0.362,0.166,0.189,-0.3545,-0.042,0.163,0.122,-0.2615,-0.3775,-0.499,0.126,-0.436,0.1455
0.0235,-0.3415,-0.3645,0.159,0.194,-0.353,-0.0435,0.1625,0.1215,-0.2605,-0.377,-0.496,0.1285,-0.44,0.1475
0.023,-0.3405,-0.363,0.1585,0.1935,-0.352,-0.042,0.167,0.127,-0.257,-0.374,-0.4945,0.1285,-0.438,0.1455
0.02,-0.3425,-0.3625,0.161,0.1915,-0.3525,-0.0415,0.1655,0.1245,-0.26,-0.377,-0.4975,0.125,-0.4325,0.1445
0.0195,-0.3445,-0.3635,0.1625,0.1915,-0.354,-0.0395,0.1675,0.125,-0.261,-0.38,-0.4985,0.1235,-0.4325,0.144
0.0265,-0.338,-0.3645,0.1555,0.196,-0.351,-0.0415,0.168,0.126,-0.2575,-0.3755,-0.494,0.129,-0.4255,0.1425
0.025,-0.338,-0.363,0.1565,0.194,-0.3505,-0.0425,0.165,0.1245,-0.259,-0.377,-0.4955,0.128,-0.425,0.143
0.017,-0.3415,-0.358,0.162,0.1875,-0.3495,-0.0415,0.166,0.124,-0.26,-0.3765,-0.496,0.126,-0.4325,0.1425
0.026,-0.3375,-0.3635,0.1555,0.195,-0.3505,-0.041,0.1685,0.1255,-0.2565,-0.374,-0.4935,0.1275,-0.4285,0.143
0.028,-0.3345,-0.362,0.153,0.1955,-0.3485,-0.0395,0.1705,0.1265,-0.254,-0.372,-0.492,0.126,-0.4205,0.142
0.0235,-0.336,-0.359,0.156,0.1915,-0.3475,-0.037,0.172,0.129,-0.2515,-0.3695,-0.4885,0.1265,-0.4165,0.139
0.017,-0.3395,-0.356,0.1615,0.1865,-0.348,-0.037,0.171,0.129,-0.2525,-0.371,-0.4905,0.125,-0.417,0.139
0.0115,-0.341,-0.352,0.1645,0.182,-0.3465,-0.0355,0.173,0.131,-0.25,-0.3705,-0.49,0.124,-0.4195,0.1375
0.0165,-0.3365,-0.3525,0.16,0.1845,-0.3445,-0.037,0.176,0.135,-0.2455,-0.3655,-0.4855,0.1265,-0.4105,0.1355
0.0205,-0.331,-0.3505,0.155,0.1855,-0.341,-0.0365,0.1785,0.137,-0.243,-0.3635,-0.483,0.1275,-0.407,0.1345
0.023,-0.3265,-0.3495,0.1515,0.1865,-0.338,-0.035,0.179,0.139,-0.24,-0.362,-0.481,0.1275,-0.4085,0.133
0.027,-0.321,-0.3475,0.147,0.1875,-0.334,-0.035,0.1805,0.142,-0.2385,-0.359,-0.4795,0.1275,-0.403,0.131
0.0255,-0.3145,-0.3395,0.1445,0.1825,-0.327,-0.032,0.182,0.146,-0.2345,-0.356,-0.475,0.1285,-0.392,0.1285
0.028,-0.3085,-0.336,0.14,0.182,-0.322,-0.034,0.183,0.148,-0.232,-0.353,-0.4735,0.129,-0.3835,0.127
0.0325,-0.3015,-0.3335,0.134,0.1835,-0.3175,-0.0375,0.183,0.15,-0.231,-0.3515,-0.4715,0.13,-0.381,0.1265
0.031,-0.2955,-0.3265,0.132,0.179,-0.311,-0.038,0.182,0.152,-0.2295,-0.3505,-0.47,0.13,-0.376,0.1255
0.034,-0.2915,-0.325,0.1285,0.1795,-0.3085,-0.038,0.1865,0.155,-0.2255,-0.348,-0.467,0.1315,-0.372,0.1245
0.041,-0.285,-0.325,0.1215,0.1835,-0.305,-0.0395,0.188,0.158,-0.224,-0.3445,-0.465,0.133,-0.3725,0.123
0.048,-0.2785,-0.326,0.115,0.1875,-0.302,-0.04,0.192,0.162,-0.2215,-0.339,-0.4615,0.1365,-0.376,0.1215
0.052,-0.275,-0.3265,0.111,0.1895,-0.3005,-0.039,0.1965,0.1665,-0.2165,-0.3365,-0.458,0.1395,-0.3735,0.12
0.049,-0.2745,-0.323,0.1125,0.1865,-0.299,-0.038,0.196,0.168,-0.218,-0.337,-0.4575,0.139,-0.368,0.119
0.048,-0.2755,-0.323,0.113,0.186,-0.2995,-0.0375,0.196,0.166,-0.2195,-0.3385,-0.459,0.14,-0.369,0.121
0.048,-0.2745,-0.3225,0.113,0.1855,-0.2985,-0.037,0.1955,0.1645,-0.22,-0.34,-0.461,0.14,-0.3695,0.1215
0.043,-0.275,-0.3175,0.116,0.1805,-0.296,-0.03,0.2005,0.1695,-0.215,-0.3355,-0.4575,0.139,-0.367,0.1175
0.042,-0.2745,-0.316,0.116,0.1795,-0.2955,-0.026,0.2015,0.171,-0.2135,-0.334,-0.457,0.1375,-0.3605,0.1135
0.04,-0.272,-0.312,0.1155,0.1765,-0.292,-0.0255,0.2025,0.1725,-0.2135,-0.3345,-0.456,0.137,-0.3535,0.112
0.0365,-0.2705,-0.3065,0.117,0.1715,-0.2885,-0.021,0.206,0.1765,-0.21,-0.3305,-0.453,0.138,-0.3505,0.109
0.0425,-0.2655,-0.308,0.1115,0.1755,-0.287,-0.019,0.2085,0.18,-0.206,-0.3265,-0.449,0.14,-0.3435,0.1065
0.0455,-0.26,-0.305,0.107,0.1755,-0.2825,-0.02,0.2135,0.1855,-0.2,-0.321,-0.4455,0.1415,-0.338,0.105
0.043,-0.258,-0.3005,0.1075,0.172,-0.2795,-0.02,0.211,0.1835,-0.2015,-0.3225,-0.446,0.141,-0.339,0.106
0.0395,-0.258,-0.2965,0.109,0.168,-0.277,-0.0165,0.2105,0.1835,-0.202,-0.321,-0.446,0.1395,-0.3305,0.1055
0.04,-0.253,-0.2925,0.1065,0.1665,-0.273,-0.012,0.2175,0.1895,-0.197,-0.3185,-0.444,0.1395,-0.3245,0.101
0.045,-0.2475,-0.292,0.101,0.169,-0.27,-0.014,0.2195,0.1935,-0.1955,-0.3165,-0.442,0.1415,-0.3295,0.0995
0.048,-0.245,-0.2925,0.098,0.1705,-0.269,-0.0165,0.219,0.1935,-0.1945,-0.3155,-0.4415,0.1425,-0.337,0.1005
0.0505,-0.243,-0.293,0.0955,0.1725,-0.268,-0.0175,0.22,0.1935,-0.1935,-0.3165,-0.443,0.1425,-0.3325,0.098
0.05,-0.2405,-0.29,0.095,0.1705,-0.2655,-0.0165,0.2225,0.198,-0.19,-0.3125,-0.439,0.1455,-0.3245,0.0955
0.049,-0.24,-0.2885,0.095,0.169,-0.2645,-0.017,0.22,0.1965,-0.19,-0.321,-0.4385,0.1455,-0.3255,0.097
0.047,-0.238,-0.2845,0.095,0.166,-0.2615,-0.018,0.219,0.197,-0.192,-0.3275,-0.441,0.143,-0.323,0.096
0.0475,-0.236,-0.283,0.094,0.1655,-0.2595,-0.021,0.219,0.1985,-0.1925,-0.3255,-0.439,0.143,-0.325,0.095
0.049,-0.239,-0.2875,0.095,0.1685,-0.2635,-0.0285,0.2165,0.196,-0.1925,-0.3245,-0.438,0.1445,-0.326,0.0975
0.049,-0.2415,-0.29,0.096,0.17,-0.266,-0.037,0.2075,0.192,-0.194,-0.3225,-0.439,0.1465,-0.327,0.101
0.054,-0.2405,-0.2935,0.093,0.1745,-0.267,-0.0475,0.1985,0.1855,-0.199,-0.3215,-0.4415,0.147,-0.3275,0.1045
0.0585,-0.238,-0.296,0.0895,0.1775,-0.267,-0.054,0.1995,0.1845,-0.1985,-0.317,-0.44,0.151,-0.326,0.1065
0.0605,-0.239,-0.299,0.089,0.18,-0.269,-0.063,0.1955,0.183,-0.1975,-0.3145,-0.4375,0.155,-0.3345,0.11
0.063,-0.239,-0.3015,0.088,0.1825,-0.27,-0.0735,0.191,0.1805,-0.198,-0.316,-0.436,0.158,-0.341,0.1135
0.0655,-0.2365,-0.3015,0.085,0.1835,-0.269,-0.0815,0.191,0.182,-0.1955,-0.3105,-0.432,0.1625,-0.3355,0.1155
0.0695,-0.234,-0.3035,0.082,0.187,-0.269,-0.096,0.1855,0.179,-0.1965,-0.309,-0.4305,0.165,-0.3345,0.118
0.075,-0.2375,-0.312,0.081,0.194,-0.275,-0.105,0.1835,0.176,-0.1975,-0.3105,-0.43,0.169,-0.3425,0.1225
0.076,-0.242,-0.3175,0.083,0.197,-0.2795,-0.1085,0.183,0.173,-0.198,-0.3095,-0.4315,0.1725,-0.345,0.1285
0.0755,-0.2445,-0.3195,0.084,0.1975,-0.282,-0.1125,0.1785,0.17,-0.2005,-0.311,-0.432,0.172,-0.352,0.1325
0.0765,-0.247,-0.323,0.085,0.2,-0.285,-0.114,0.18,0.1735,-0.1985,-0.3075,-0.4295,0.175,-0.352,0.135
0.083,-0.2455,-0.328,0.081,0.2055,-0.287,-0.121,0.1815,0.175,-0.195,-0.3045,-0.4265,0.181,-0.3515,0.1375
0.0995,-0.2405,-0.339,0.0705,0.2195,-0.2895,-0.1285,0.1825,0.1745,-0.195,-0.3025,-0.423,0.1875,-0.3655,0.14
0.103,-0.237,-0.3395,0.067,0.2215,-0.2885,-0.13,0.184,0.175,-0.1945,-0.301,-0.422,0.19,-0.368,0.1405
0.0965,-0.243,-0.339,0.073,0.218,-0.291,-0.1255,0.183,0.175,-0.1965,-0.302,-0.424,0.1895,-0.3695,0.1405
0.0985,-0.2455,-0.343,0.073,0.221,-0.294,-0.12,0.187,0.176,-0.198,-0.304,-0.426,0.189,-0.367,0.138
0.095,-0.245,-0.3395,0.0745,0.2175,-0.292,-0.1155,0.1865,0.178,-0.194,-0.303,-0.425,0.1895,-0.365,0.1365
0.0975,-0.2425,-0.3395,0.072,0.219,-0.291,-0.117,0.1835,0.176,-0.194,-0.3025,-0.425,0.1905,-0.3665,0.138
0.103,-0.2395,-0.3425,0.068,0.223,-0.291,-0.1205,0.1815,0.1735,-0.196,-0.3035,-0.424,0.1935,-0.3595,0.1395
0.1035,-0.241,-0.3435,0.0685,0.2235,-0.292,-0.1225,0.18,0.1735,-0.1945,-0.3015,-0.4215,0.197,-0.3585,0.144
0.1065,-0.2385,-0.3445,0.066,0.2255,-0.2915,-0.128,0.175,0.1675,-0.1985,-0.303,-0.422,0.1955,-0.357,0.149
0.1065,-0.238,-0.344,0.065,0.226,-0.291,-0.134,0.165,0.16,-0.204,-0.3065,-0.425,0.195,-0.363,0.1555
0.107,-0.235,-0.342,0.0635,0.2245,-0.2885,-0.1375,0.1625,0.1575,-0.206,-0.307,-0.4235,0.1975,-0.361,0.162
0.1065,-0.2335,-0.3395,0.0635,0.223,-0.2865,-0.1405,0.162,0.159,-0.206,-0.3065,-0.422,0.1965,-0.355,0.165
0.107,-0.2395,-0.3465,0.066,0.227,-0.293,-0.1445,0.1585,0.1535,-0.209,-0.31,-0.4255,0.195,-0.366,0.1695
0.1,-0.2545,-0.3535,0.077,0.227,-0.304,-0.1415,0.15,0.1395,-0.2215,-0.3215,-0.4345,0.1895,-0.378,0.1775
0.09,-0.2705,-0.3605,0.09,0.2255,-0.3155,-0.1365,0.1455,0.13,-0.2345,-0.334,-0.4475,0.1805,-0.392,0.183
0.093,-0.2775,-0.37,0.092,0.232,-0.324,-0.136,0.143,0.1225,-0.241,-0.341,-0.453,0.18,-0.4,0.186
0.09,-0.283,-0.3725,0.096,0.2315,-0.3275,-0.1325,0.1405,0.1165,-0.245,-0.3455,-0.4565,0.1775,-0.3995,0.1915
0.0895,-0.2835,-0.372,0.0965,0.231,-0.3275,-0.1285,0.142,0.117,-0.2465,-0.346,-0.457,0.176,-0.3985,0.194
0.0935,-0.2795,-0.372,0.0925,0.233,-0.326,-0.128,0.144,0.12,-0.2425,-0.343,-0.4545,0.1795,-0.397,0.1915
0.093,-0.2755,-0.368,0.091,0.2305,-0.3215,-0.126,0.146,0.121,-0.242,-0.3415,-0.454,0.1765,-0.3935,0.19
0.09,-0.2725,-0.362,0.091,0.2265,-0.3175,-0.1265,0.14,0.1155,-0.248,-0.346,-0.4565,0.173,-0.388,0.193
0.0895,-0.2725,-0.3615,0.091,0.226,-0.317,-0.1265,0.1385,0.1145,-0.2495,-0.3485,-0.459,0.171,-0.389,0.193
0.092,-0.271,-0.3625,0.089,0.2275,-0.3165,-0.126,0.14,0.1175,-0.2465,-0.3455,-0.4565,0.1735,-0.387,0.191
0.0955,-0.271,-0.366,0.0875,0.231,-0.3185,-0.1245,0.1405,0.1205,-0.242,-0.3425,-0.452,0.1805,-0.383,0.1905
0.0975,-0.2715,-0.3685,0.087,0.2335,-0.3205,-0.1255,0.1445,0.1225,-0.2405,-0.342,-0.451,0.183,-0.384,0.1915
0.0965,-0.2755,-0.372,0.089,0.2345,-0.324,-0.1265,0.146,0.123,-0.24,-0.3395,-0.4505,0.187,-0.3845,0.192
0.106,-0.2755,-0.381,0.0845,0.244,-0.3285,-0.126,0.1475,0.125,-0.2355,-0.3355,-0.447,0.194,-0.3915,0.1925
0.1165,-0.273,-0.389,0.078,0.253,-0.331,-0.1315,0.145,0.1225,-0.2375,-0.336,-0.447,0.1965,-0.3995,0.197
0.1255,-0.275,-0.3995,0.0745,0.263,-0.337,-0.1365,0.144,0.1205,-0.2375,-0.3345,-0.4445,0.2,-0.399,0.2005
0.131,-0.273,-0.403,0.0705,0.2675,-0.338,-0.1375,0.1435,0.1185,-0.2365,-0.3345,-0.445,0.2035,-0.3985,0.2035
0.1335,-0.2695,-0.4025,0.068,0.268,-0.336,-0.1415,0.1425,0.118,-0.2385,-0.336,-0.4445,0.203,-0.396,0.2075
0.139,-0.2645,-0.403,0.0625,0.2715,-0.334,-0.1445,0.142,0.1185,-0.2365,-0.3325,-0.44,0.2035,-0.386,0.2075
0.1385,-0.2615,-0.3995,0.0615,0.2695,-0.3305,-0.1435,0.141,0.1195,-0.2345,-0.3295,-0.438,0.2035,-0.3805,0.205
0.1355,-0.2625,-0.398,0.0635,0.267,-0.3305,-0.1415,0.1405,0.1215,-0.234,-0.3295,-0.4365,0.2015,-0.3815,0.2015
0.1295,-0.264,-0.3935,0.067,0.2615,-0.329,-0.139,0.1385,0.118,-0.2375,-0.3325,-0.4395,0.1965,-0.379,0.1985
0.132,-0.261,-0.3925,0.064,0.2625,-0.3265,-0.1375,0.1385,0.1165,-0.2365,-0.3325,-0.439,0.1935,-0.38,0.196
0.1415,-0.2575,-0.398,0.0575,0.27,-0.328,-0.1405,0.136,0.114,-0.2385,-0.3325,-0.4385,0.193,-0.3815,0.1975
0.148,-0.2515,-0.399,0.0515,0.274,-0.3255,-0.1435,0.1345,0.1125,-0.2405,-0.333,-0.439,0.193,-0.3725,0.201
0.149,-0.253,-0.401,0.0515,0.275,-0.327,-0.141,0.1345,0.112,-0.24,-0.3335,-0.4375,0.192,-0.374,0.2005
0.14,-0.262,-0.4015,0.061,0.271,-0.332,-0.1375,0.1335,0.11,-0.2435,-0.3355,-0.4395,0.1895,-0.384,0.1995
0.134,-0.268,-0.402,0.067,0.2685,-0.335,-0.1365,0.13,0.1055,-0.247,-0.3405,-0.4445,0.1865,-0.392,0.1995
0.1345,-0.274,-0.408,0.0695,0.2715,-0.341,-0.1355,0.129,0.1025,-0.251,-0.344,-0.4485,0.185,-0.401,0.1985
0.14,-0.271,-0.411,0.0655,0.276,-0.341,-0.136,0.1315,0.105,-0.248,-0.342,-0.4475,0.1885,-0.3975,0.1965
0.1415,-0.2715,-0.4125,0.0645,0.2775,-0.342,-0.14,0.129,0.1005,-0.2515,-0.346,-0.4515,0.1875,-0.398,0.199
0.134,-0.2785,-0.412,0.072,0.2735,-0.3455,-0.1385,0.1265,0.0955,-0.256,-0.3505,-0.4565,0.1825,-0.3965,0.199
0.126,-0.2775,-0.403,0.0755,0.2645,-0.34,-0.1375,0.124,0.0955,-0.257,-0.3525,-0.459,0.178,-0.3875,0.196
0.13,-0.2725,-0.4015,0.071,0.266,-0.337,-0.1365,0.126,0.0975,-0.255,-0.35,-0.4555,0.1805,-0.3865,0.193
0.1295,-0.2735,-0.403,0.072,0.2665,-0.3385,-0.1315,0.132,0.1035,-0.2495,-0.3465,-0.4525,0.1805,-0.3865,0.1865
0.122,-0.2795,-0.4005,0.0785,0.2615,-0.34,-0.1265,0.135,0.1085,-0.2475,-0.3445,-0.4515,0.1795,-0.383,0.183
0.117,-0.2825,-0.399,0.082,0.2585,-0.3405,-0.1215,0.136,0.1055,-0.2515,-0.346,-0.454,0.178,-0.383,0.183
0.1125,-0.289,-0.401,0.088,0.257,-0.3445,-0.1185,0.1345,0.1025,-0.256,-0.352,-0.4605,0.1725,-0.3935,0.182
0.11,-0.295,-0.4045,0.092,0.2575,-0.35,-0.112,0.1395,0.107,-0.2535,-0.349,-0.458,0.172,-0.3995,0.178
0.1025,-0.3,-0.402,0.0985,0.2525,-0.351,-0.1045,0.144,0.111,-0.2495,-0.3475,-0.456,0.1705,-0.4045,0.1755
0.0945,-0.3015,-0.3955,0.1035,0.2455,-0.3485,-0.099,0.1475,0.1155,-0.245,-0.3435,-0.454,0.1675,-0.4025,0.17
0.0855,-0.3,-0.3855,0.107,0.236,-0.3425,-0.0905,0.1535,0.12,-0.243,-0.3405,-0.4535,0.163,-0.3955,0.1645
0.068,-0.3065,-0.3745,0.119,0.2215,-0.3405,-0.083,0.1535,0.1195,-0.2435,-0.343,-0.4565,0.157,-0.399,0.1615
0.0525,-0.3145,-0.3665,0.1305,0.2095,-0.3405,-0.08,0.1495,0.116,-0.2475,-0.347,-0.4595,0.1505,-0.4005,0.162
0.041,-0.322,-0.3625,0.1405,0.202,-0.3425,-0.075,0.1475,0.1115,-0.2525,-0.356,-0.4675,0.143,-0.404,0.163
0.029,-0.33,-0.3585,0.15,0.194,-0.3445,-0.0695,0.1475,0.1095,-0.256,-0.3595,-0.473,0.136,-0.4085,0.16
0.028,-0.3355,-0.363,0.1535,0.196,-0.3495,-0.0665,0.1485,0.1115,-0.26,-0.366,-0.4805,0.13,-0.4105,0.1575
0.0295,-0.3335,-0.3625,0.152,0.196,-0.348,-0.0675,0.142,0.1035,-0.2625,-0.3675,-0.4815,0.13,-0.413,0.1575
0.0305,-0.3285,-0.3585,0.149,0.1945,-0.3435,-0.0685,0.138,0.099,-0.262,-0.3655,-0.4785,0.131,-0.415,0.159
0.0305,-0.329,-0.3595,0.149,0.195,-0.3445,-0.063,0.145,0.1055,-0.259,-0.3655,-0.479,0.1305,-0.4135,0.156
0.0225,-0.333,-0.355,0.155,0.189,-0.344,-0.062,0.1445,0.1025,-0.2615,-0.3675,-0.4815,0.1295,-0.4245,0.155
0.0205,-0.337,-0.3575,0.158,0.189,-0.347,-0.063,0.1425,0.102,-0.263,-0.369,-0.484,0.129,-0.426,0.1565
0.0255,-0.332,-0.3575,0.153,0.192,-0.3445,-0.0615,0.1445,0.105,-0.2625,-0.3675,-0.483,0.1305,-0.4135,0.1535
0.0315,-0.331,-0.362,0.1495,0.197,-0.3465,-0.062,0.146,0.1055,-0.2605,-0.368,-0.4845,0.1315,-0.416,0.152
0.034,-0.333,-0.366,0.1495,0.2005,-0.3495,-0.0645,0.1415,0.1005,-0.263,-0.371,-0.487,0.1295,-0.421,0.153
0.0275,-0.3385,-0.3655,0.155,0.197,-0.352,-0.065,0.1375,0.0955,-0.2695,-0.376,-0.491,0.126,-0.4265,0.155
0.024,-0.3445,-0.368,0.16,0.196,-0.3565,-0.0625,0.139,0.0965,-0.2705,-0.3765,-0.4935,0.1235,-0.4285,0.155
0.026,-0.3445,-0.37,0.159,0.198,-0.3575,-0.063,0.14,0.0965,-0.2715,-0.379,-0.4955,0.1225,-0.434,0.1555
0.0215,-0.349,-0.37,0.1635,0.196,-0.3595,-0.0605,0.139,0.096,-0.2725,-0.3805,-0.4975,0.1195,-0.439,0.155
0.018,-0.3525,-0.3695,0.167,0.194,-0.361,-0.058,0.1385,0.095,-0.274,-0.3795,-0.4975,0.117,-0.4385,0.1545
0.0205,-0.351,-0.371,0.165,0.196,-0.361,-0.0575,0.142,0.0985,-0.273,-0.379,-0.4965,0.117,-0.437,0.152
0.021,-0.3505,-0.3705,0.1645,0.196,-0.3605,-0.0545,0.1435,0.0995,-0.2705,-0.379,-0.4965,0.116,-0.436,0.149
0.013,-0.3565,-0.369,0.1715,0.1915,-0.363,-0.051,0.1465,0.101,-0.269,-0.379,-0.4955,0.1145,-0.439,0.1475
0.0105,-0.3565,-0.367,0.1725,0.189,-0.3615,-0.0505,0.147,0.1035,-0.2685,-0.3775,-0.496,0.114,-0.435,0.146
0.008,-0.3575,-0.365,0.1745,0.187,-0.361,-0.0485,0.1485,0.106,-0.266,-0.375,-0.4945,0.1145,-0.435,0.146
-0.001,-0.3615,-0.36,0.181,0.18,-0.361,-0.043,0.15,0.106,-0.2685,-0.377,-0.495,0.1115,-0.446,0.145
-0.004,-0.363,-0.3585,0.1835,0.1775,-0.3605,-0.041,0.147,0.101,-0.273,-0.3815,-0.5,0.108,-0.4445,0.145
-0.0065,-0.3645,-0.3575,0.1855,0.1755,-0.361,-0.0405,0.1475,0.1015,-0.272,-0.3815,-0.5,0.107,-0.439,0.143
0.003,-0.3575,-0.36,0.177,0.182,-0.359,-0.044,0.1465,0.102,-0.272,-0.382,-0.501,0.1075,-0.4405,0.1435
0.0055,-0.3535,-0.359,0.1735,0.1825,-0.356,-0.0435,0.146,0.1025,-0.271,-0.3815,-0.4995,0.108,-0.44,0.1415
0.0065,-0.3525,-0.358,0.1725,0.1825,-0.355,-0.0425,0.1455,0.1025,-0.2725,-0.3815,-0.4985,0.1085,-0.4395,0.1415
0.0145,-0.35,-0.364,0.1675,0.1895,-0.3565,-0.043,0.1475,0.104,-0.2685,-0.378,-0.4945,0.112,-0.433,0.14
0.0065,-0.35,-0.356,0.1715,0.1815,-0.3525,-0.045,0.145,0.1035,-0.2695,-0.379,-0.4955,0.1095,-0.435,0.1395
0.005,-0.3495,-0.3535,0.172,0.1795,-0.3515,-0.0465,0.1435,0.1,-0.2755,-0.383,-0.5,0.107,-0.4425,0.1435
0.008,-0.347,-0.354,0.169,0.1815,-0.3505,-0.047,0.145,0.103,-0.271,-0.3785,-0.497,0.111,-0.441,0.1405
0.0095,-0.347,-0.356,0.168,0.183,-0.3515,-0.049,0.142,0.1005,-0.273,-0.3815,-0.4995,0.1105,-0.441,0.142
0.005,-0.351,-0.3555,0.1725,0.1805,-0.353,-0.043,0.1445,0.1,-0.2745,-0.3825,-0.499,0.1085,-0.4365,0.1415
0.004,-0.3515,-0.3545,0.1735,0.1795,-0.353,-0.0405,0.147,0.1035,-0.2715,-0.3785,-0.4965,0.11,-0.432,0.1415
0.0065,-0.3525,-0.3585,0.1725,0.183,-0.355,-0.0405,0.148,0.1055,-0.2705,-0.3765,-0.494,0.113,-0.429,0.1415
0.006,-0.354,-0.3595,0.174,0.183,-0.357,-0.04,0.1485,0.1075,-0.268,-0.374,-0.4925,0.1135,-0.4295,0.1395
0.009,-0.3555,-0.364,0.173,0.1865,-0.3595,-0.0405,0.1505,0.1105,-0.267,-0.3755,-0.496,0.112,-0.432,0.1405
0.0085,-0.3525,-0.361,0.1715,0.185,-0.3565,-0.04,0.1515,0.1105,-0.2675,-0.377,-0.4975,0.11,-0.435,0.14
0.01,-0.3495,-0.359,0.1695,0.1845,-0.354,-0.0395,0.1495,0.11,-0.2655,-0.3755,-0.4935,0.1125,-0.44,0.1405
0.0065,-0.3535,-0.359,0.173,0.183,-0.3565,-0.0385,0.1495,0.11,-0.2645,-0.375,-0.4935,0.112,-0.441,0.1395
0.0025,-0.355,-0.357,0.176,0.18,-0.356,-0.038,0.1505,0.11,-0.2655,-0.3745,-0.496,0.11,-0.4335,0.138
0.0015,-0.3545,-0.355,0.1765,0.1785,-0.3545,-0.0365,0.152,0.109,-0.2635,-0.374,-0.4945,0.1105,-0.425,0.136
-0.003,-0.355,-0.3515,0.1785,0.1745,-0.353,-0.0355,0.1495,0.108,-0.2645,-0.3745,-0.4965,0.109,-0.422,0.135
0.0005,-0.3535,-0.3535,0.1765,0.1775,-0.3535,-0.035,0.1525,0.1095,-0.2635,-0.3705,-0.4935,0.11,-0.4215,0.1355
0.0105,-0.3475,-0.3575,0.168,0.184,-0.3525,-0.0375,0.155,0.113,-0.261,-0.3685,-0.491,0.1125,-0.425,0.136
0.0135,-0.3445,-0.3575,0.165,0.186,-0.351,-0.042,0.153,0.1115,-0.2615,-0.37,-0.491,0.114,-0.435,0.138
0.0095,-0.3445,-0.3535,0.167,0.182,-0.349,-0.0435,0.152,0.1085,-0.2605,-0.3685,-0.4925,0.1125,-0.4355,0.137
0.0065,-0.3455,-0.3515,0.169,0.179,-0.3485,-0.0415,0.1525,0.112,-0.261,-0.368,-0.4905,0.114,-0.4305,0.135
0.002,-0.3495,-0.3505,0.1735,0.1765,-0.35,-0.039,0.1555,0.116,-0.259,-0.3675,-0.49,0.1145,-0.435,0.1355
-0.0025,-0.3485,-0.3455,0.1755,0.1715,-0.347,-0.037,0.156,0.1175,-0.2565,-0.364,-0.4895,0.1135,-0.434,0.132
-0.0005,-0.342,-0.341,0.171,0.1705,-0.3415,-0.035,0.1555,0.12,-0.2545,-0.36,-0.4855,0.116,-0.423,0.126
-0.003,-0.332,-0.329,0.1675,0.163,-0.3305,-0.0335,0.1585,0.124,-0.25,-0.3565,-0.4815,0.115,-0.411,0.12
-0.015,-0.3285,-0.313,0.1715,0.1495,-0.321,-0.031,0.154,0.122,-0.2545,-0.36,-0.482,0.109,-0.4055,0.117
-0.0225,-0.321,-0.298,0.1715,0.138,-0.3095,-0.031,0.155,0.126,-0.251,-0.355,-0.478,0.11,-0.3935,0.1115
-0.0255,-0.3095,-0.2835,0.1675,0.1295,-0.2965,-0.0285,0.1605,0.138,-0.2415,-0.344,-0.4675,0.114,-0.3785,0.101
-0.031,-0.3045,-0.273,0.1675,0.1215,-0.289,-0.022,0.1715,0.1515,-0.2315,-0.335,-0.46,0.1165,-0.372,0.093
-0.036,-0.298,-0.262,0.1665,0.1135,-0.28,-0.012,0.196,0.179,-0.206,-0.3135,-0.4445,0.1255,-0.3625,0.0765
-0.0385,-0.288,-0.249,0.163,0.1055,-0.2685,-0.003,0.215,0.2055,-0.1835,-0.2935,-0.4315,0.133,-0.3545,0.0605
-0.0435,-0.2775,-0.233,0.1605,0.095,-0.2555,0.0085,0.244,0.2415,-0.15,-0.265,-0.4115,0.1465,-0.345,0.04
-0.046,-0.267,-0.22,0.1565,0.087,-0.2435,0.0225,0.2895,0.295,-0.098,-0.2195,-0.377,0.1725,-0.3325,0.0115
-0.04,-0.2615,-0.2215,0.1505,0.091,-0.2415,0.0335,0.325,0.335,-0.057,-0.1835,-0.35,0.1975,-0.3315,-0.006
-0.0315,-0.256,-0.224,0.1435,0.0965,-0.24,0.042,0.347,0.362,-0.0265,-0.1495,-0.3205,0.2225,-0.3335,-0.019
-0.0215,-0.2465,-0.2245,0.1335,0.1015,-0.2355,0.0445,0.369,0.388,0.002,-0.1135,-0.286,0.2515,-0.3295,-0.027
-0.009,-0.24,-0.2305,0.1245,0.111,-0.2355,0.043,0.3875,0.413,0.033,-0.0755,-0.2465,0.2875,-0.3305,-0.033
0.016,-0.2225,-0.238,0.103,0.1275,-0.23,0.038,0.408,0.4505,0.0845,-0.015,-0.1905,0.337,-0.3175,-0.0435
0.0385,-0.202,-0.2405,0.0815,0.14,-0.2215,0.037,0.442,0.5055,0.153,0.06,-0.126,0.394,-0.2985,-0.064
0.056,-0.1865,-0.242,0.065,0.1495,-0.2145,0.0305,0.4765,0.57,0.2345,0.153,-0.0445,0.468,-0.2895,-0.087
0.091,-0.169,-0.2595,0.039,0.1755,-0.2145,0.028,0.5305,0.6525,0.337,0.26,0.046,0.5525,-0.2815,-0.1155
0.1275,-0.157,-0.284,0.0145,0.206,-0.2205,0.03,0.5825,0.7295,0.432,0.3575,0.126,0.631,-0.285,-0.142
0.1715,-0.1475,-0.318,-0.012,0.245,-0.233,0.027,0.63,0.8035,0.5295,0.461,0.2115,0.7165,-0.292,-0.167
0.2195,-0.1365,-0.3555,-0.042,0.288,-0.246,0.0285,0.692,0.889,0.635,0.562,0.2905,0.798,-0.2875,-0.199
0.258,-0.1275,-0.385,-0.0655,0.322,-0.2565,0.0225,0.7275,0.945,0.7125,0.646,0.357,0.865,-0.2815,-0.22
0.3085,-0.1105,-0.4185,-0.0995,0.364,-0.2645,0.01,0.7555,0.9985,0.8055,0.753,0.4475,0.952,-0.2755,-0.2455
0.3735,-0.0825,-0.4555,-0.1455,0.4145,-0.269,-0.02,0.768,1.0475,0.9155,0.8865,0.562,1.062,-0.267,-0.2665
0.4325,-0.0535,-0.4855,-0.1895,0.4585,-0.2695,-0.0425,0.7755,1.0865,1.014,1.014,0.6745,1.166,-0.2495,-0.289
0.497,-0.0295,-0.526,-0.234,0.511,-0.278,-0.063,0.786,1.1205,1.104,1.136,0.787,1.274,-0.2385,-0.3075
0.5745,-0.009,-0.583,-0.283,0.5785,-0.296,-0.091,0.7865,1.1395,1.178,1.245,0.891,1.379,-0.241,-0.312
0.6525,0.0195,-0.6325,-0.3365,0.6425,-0.3065,-0.113,0.802,1.174,1.265,1.3635,0.999,1.486,-0.23,-0.3245
0.7425,0.056,-0.6865,-0.4,0.714,-0.315,-0.1615,0.7975,1.1965,1.3615,1.5025,1.13,1.616,-0.2125,-0.3235
0.8475,0.095,-0.752,-0.4715,0.7995,-0.3285,-0.2,0.8155,1.2355,1.468,1.6435,1.263,1.7505,-0.1985,-0.3325
0.958,0.137,-0.8215,-0.548,0.89,-0.3425,-0.2575,0.8135,1.2475,1.5505,1.77,1.3895,1.8815,-0.182,-0.326
1.055,0.179,-0.876,-0.617,0.9655,-0.3485,-0.3355,0.78,1.2295,1.6025,1.868,1.4945,1.992,-0.166,-0.303
1.165,0.2245,-0.941,-0.695,1.053,-0.358,-0.411,0.7625,1.2255,1.67,1.975,1.6055,2.1125,-0.1535,-0.28
1.2745,0.2785,-0.996,-0.7765,1.135,-0.3585,-0.502,0.7085,1.185,1.706,2.054,1.697,2.214,-0.122,-0.239
1.3545,0.316,-1.038,-0.8355,1.1965,-0.361,-0.5635,0.6555,1.1275,1.6995,2.0655,1.718,2.2515,-0.0995,-0.198
1.4255,0.358,-1.0675,-0.8915,1.2465,-0.355,-0.6345,0.5785,1.04,1.659,2.044,1.722,2.271,-0.076,-0.14
1.471,0.3985,-1.0725,-0.9345,1.2715,-0.337,-0.6985,0.501,0.953,1.5825,1.9535,1.6635,2.235,-0.0405,-0.081
1.5175,0.43,-1.0875,-0.974,1.3025,-0.329,-0.765,0.43,0.8725,1.51,1.8555,1.593,2.192,-0.019,-0.024
1.539,0.451,-1.088,-0.995,1.3135,-0.3185,-0.8405,0.33,0.7725,1.4205,1.747,1.5145,2.1325,-0.007,0.032
1.5255,0.43,-1.0955,-0.978,1.3105,-0.3325,-0.86,0.263,0.6805,1.295,1.572,1.3545,2.002,-0.02,0.079
1.512,0.39,-1.1225,-0.951,1.317,-0.366,-0.8605,0.2025,0.5765,1.156,1.374,1.1645,1.851,-0.046,0.131
1.4785,0.339,-1.14,-0.9085,1.309,-0.4005,-0.868,0.0905,0.436,0.985,1.1475,0.952,1.6765,-0.0805,0.1955
1.407,0.2905,-1.1165,-0.8485,1.262,-0.413,-0.8615,-0.044,0.2785,0.79,0.903,0.721,1.471,-0.1025,0.255
1.3135,0.2435,-1.0705,-0.7785,1.192,-0.4135,-0.8495,-0.2005,0.095,0.565,0.6405,0.4865,1.2555,-0.122,0.3225
1.2185,0.2345,-0.9845,-0.7265,1.1015,-0.375,-0.873,-0.4195,-0.1275,0.3215,0.4105,0.3095,1.0725,-0.1085,0.402
1.1255,0.23,-0.8955,-0.6775,1.0105,-0.333,-0.8925,-0.6245,-0.334,0.096,0.209,0.154,0.903,-0.088,0.4665
1.0535,0.171,-0.8825,-0.6125,0.968,-0.3555,-0.8945,-0.78,-0.5175,-0.117,0.0065,-0.0095,0.747,-0.1255,0.5405
0.9845,0.066,-0.9185,-0.526,0.9515,-0.426,-0.8805,-0.8895,-0.6735,-0.3195,-0.1955,-0.176,0.597,-0.214,0.6185
0.92,-0.0605,-0.9805,-0.43,0.95,-0.5205,-0.8515,-0.968,-0.8175,-0.5235,-0.4045,-0.344,0.4515,-0.332,0.6925
0.86,-0.144,-1.004,-0.3585,0.932,-0.574,-0.848,-1.059,-0.973,-0.7345,-0.598,-0.4825,0.3205,-0.4035,0.763
0.7875,-0.1725,-0.96,-0.308,0.8735,-0.566,-0.8535,-1.152,-1.1095,-0.921,-0.756,-0.585,0.2055,-0.4075,0.8145
0.6855,-0.191,-0.8765,-0.248,0.781,-0.5335,-0.8535,-1.2775,-1.2795,-1.141,-0.931,-0.6935,0.075,-0.3995,0.8785
0.5735,-0.225,-0.798,-0.1745,0.6855,-0.5115,-0.8325,-1.373,-1.434,-1.361,-1.1145,-0.814,-0.067,-0.4055,0.936
0.469,-0.2555,-0.724,-0.107,0.596,-0.4895,-0.788,-1.413,-1.532,-1.54,-1.273,-0.923,-0.196,-0.4025,0.968
0.374,-0.2835,-0.6575,-0.0455,0.5155,-0.4705,-0.757,-1.4615,-1.634,-1.71,-1.423,-1.032,-0.321,-0.412,1.002
0.342,-0.308,-0.6495,-0.017,0.4955,-0.479,-0.758,-1.47,-1.6625,-1.762,-1.4675,-1.0635,-0.348,-0.44,1.0315
0.346,-0.329,-0.675,-0.0085,0.5105,-0.502,-0.761,-1.4115,-1.6035,-1.7115,-1.4365,-1.0475,-0.3185,-0.4625,1.0425
0.3465,-0.327,-0.6735,-0.01,0.5095,-0.5,-0.7625,-1.333,-1.5075,-1.622,-1.3725,-1.0045,-0.28,-0.4485,1.0295
0.331,-0.307,-0.638,-0.0125,0.4845,-0.4725,-0.7565,-1.268,-1.41,-1.526,-1.293,-0.9505,-0.241,-0.41,1.002
0.322,-0.306,-0.6275,-0.0085,0.4745,-0.4665,-0.7385,-1.1955,-1.324,-1.4475,-1.239,-0.9255,-0.2165,-0.3965,0.975
0.3145,-0.3045,-0.6185,-0.0055,0.4665,-0.4615,-0.724,-1.1215,-1.2375,-1.3705,-1.1845,-0.898,-0.186,-0.3875,0.9505
0.2835,-0.3015,-0.5845,0.0085,0.4335,-0.443,-0.69,-1.0355,-1.1425,-1.2895,-1.126,-0.871,-0.1665,-0.378,0.913
0.2705,-0.287,-0.5565,0.008,0.413,-0.422,-0.649,-0.929,-1.029,-1.1925,-1.0515,-0.826,-0.131,-0.361,0.862
0.24,-0.2645,-0.504,0.012,0.372,-0.3845,-0.602,-0.8195,-0.911,-1.093,-0.9735,-0.779,-0.1025,-0.3295,0.805
0.208,-0.259,-0.4665,0.0255,0.3375,-0.3625,-0.5435,-0.7055,-0.7915,-0.994,-0.9025,-0.742,-0.079,-0.316,0.744
0.1965,-0.257,-0.453,0.03,0.325,-0.355,-0.4965,-0.5995,-0.679,-0.9045,-0.8395,-0.7095,-0.05,-0.3125,0.689
0.1835,-0.2545,-0.4375,0.035,0.3105,-0.346,-0.4535,-0.4995,-0.576,-0.8195,-0.7795,-0.682,-0.0265,-0.3115,0.636
0.184,-0.251,-0.4345,0.033,0.3095,-0.3425,-0.4265,-0.4235,-0.493,-0.747,-0.726,-0.654,0.002,-0.321,0.5915
0.1885,-0.247,-0.4355,0.029,0.3125,-0.3415,-0.4085,-0.3745,-0.4345,-0.697,-0.6905,-0.635,0.0205,-0.328,0.56
0.1925,-0.2475,-0.4395,0.027,0.3165,-0.3435,-0.384,-0.327,-0.38,-0.6525,-0.658,-0.618,0.0355,-0.3365,0.529
0.19,-0.2475,-0.437,0.0285,0.3135,-0.342,-0.3585,-0.276,-0.3255,-0.6075,-0.626,-0.604,0.0465,-0.3365,0.497
0.1765,-0.257,-0.4325,0.04,0.305,-0.345,-0.326,-0.225,-0.273,-0.568,-0.6005,-0.5945,0.053,-0.3415,0.4655
0.152,-0.274,-0.4255,0.0605,0.289,-0.35,-0.294,-0.1845,-0.233,-0.5375,-0.5805,-0.5895,0.057,-0.358,0.437
0.1485,-0.284,-0.432,0.0675,0.2905,-0.358,-0.27,-0.151,-0.203,-0.515,-0.5655,-0.583,0.0655,-0.366,0.415
0.153,-0.288,-0.44,0.067,0.297,-0.364,-0.254,-0.126,-0.179,-0.499,-0.5545,-0.578,0.072,-0.3705,0.397
0.137,-0.2895,-0.426,0.076,0.2815,-0.3575,-0.24,-0.1095,-0.1645,-0.4865,-0.5475,-0.577,0.069,-0.3735,0.3825
0.1285,-0.29,-0.418,0.0805,0.2735,-0.354,-0.231,-0.0995,-0.155,-0.482,-0.546,-0.576,0.07,-0.3735,0.376
0.127,-0.289,-0.4155,0.081,0.2715,-0.3525,-0.2205,-0.085,-0.1395,-0.472,-0.539,-0.573,0.0715,-0.374,0.363
0.1215,-0.2945,-0.415,0.0865,0.2685,-0.355,-0.1995,-0.0535,-0.11,-0.448,-0.5215,-0.565,0.076,-0.3795,0.3395
0.113,-0.299,-0.4115,0.093,0.2625,-0.355,-0.1805,-0.025,-0.0825,-0.427,-0.504,-0.5585,0.082,-0.387,0.3205
0.101,-0.3035,-0.404,0.101,0.2525,-0.3535,-0.1625,-0.0025,-0.059,-0.407,-0.4915,-0.552,0.0865,-0.3945,0.2995
0.0905,-0.313,-0.403,0.111,0.247,-0.358,-0.145,0.0205,-0.0365,-0.389,-0.4775,-0.545,0.091,-0.401,0.28
0.0835,-0.317,-0.4,0.1165,0.242,-0.3585,-0.129,0.042,-0.013,-0.372,-0.465,-0.5395,0.0935,-0.404,0.2625
0.073,-0.3215,-0.394,0.124,0.2335,-0.3575,-0.11,0.066,0.013,-0.353,-0.4535,-0.5335,0.0925,-0.4135,0.2425
0.0625,-0.3295,-0.392,0.133,0.2275,-0.3605,-0.0925,0.0855,0.032,-0.336,-0.441,-0.5285,0.0935,-0.426,0.225
0.0585,-0.334,-0.3925,0.1375,0.2255,-0.3635,-0.0785,0.1095,0.0565,-0.3205,-0.432,-0.5225,0.097,-0.427,0.209
0.0555,-0.3365,-0.3915,0.1405,0.2235,-0.364,-0.07,0.1205,0.068,-0.307,-0.419,-0.5145,0.102,-0.4275,0.1975
0.051,-0.34,-0.391,0.1445,0.2215,-0.3655,-0.063,0.1285,0.0755,-0.296,-0.4085,-0.508,0.108,-0.4315,0.1865
0.0515,-0.3415,-0.3925,0.1445,0.2225,-0.367,-0.055,0.1445,0.09,-0.2865,-0.402,-0.5045,0.111,-0.4355,0.177
0.0535,-0.343,-0.396,0.1445,0.225,-0.3695,-0.0515,0.1495,0.095,-0.281,-0.399,-0.5015,0.113,-0.4385,0.174
0.0495,-0.345,-0.394,0.1475,0.222,-0.3695,-0.05,0.153,0.0995,-0.2785,-0.3995,-0.502,0.112,-0.44,0.173
0.0415,-0.349,-0.3895,0.1535,0.2155,-0.369,-0.049,0.154,0.0985,-0.281,-0.4,-0.5055,0.1085,-0.4415,0.1705
0.037,-0.3525,-0.389,0.1575,0.213,-0.3705,-0.046,0.1555,0.099,-0.2815,-0.401,-0.507,0.1065,-0.443,0.1675
0.042,-0.3475,-0.389,0.1525,0.216,-0.368,-0.045,0.16,0.101,-0.2795,-0.4,-0.508,0.106,-0.441,0.1655
0.042,-0.3445,-0.3855,0.151,0.214,-0.365,-0.0435,0.1635,0.1035,-0.2765,-0.399,-0.5065,0.106,-0.4375,0.1625
0.0355,-0.3485,-0.383,0.156,0.2095,-0.3655,-0.0405,0.1665,0.107,-0.2735,-0.3965,-0.5055,0.106,-0.4405,0.16
0.025,-0.3515,-0.376,0.163,0.2005,-0.3635,-0.0375,0.169,0.1095,-0.2725,-0.396,-0.5085,0.104,-0.4425,0.158
0.018,-0.356,-0.373,0.169,0.1955,-0.3645,-0.0325,0.1725,0.1135,-0.2695,-0.3955,-0.5075,0.104,-0.4395,0.1555
0.018,-0.3565,-0.374,0.169,0.196,-0.365,-0.032,0.173,0.115,-0.2705,-0.395,-0.5085,0.104,-0.433,0.1515
0.02,-0.3555,-0.375,0.1675,0.1975,-0.3655,-0.0315,0.174,0.117,-0.2705,-0.395,-0.5095,0.1035,-0.438,0.1505
0.0255,-0.354,-0.379,0.164,0.2025,-0.3665,-0.0315,0.181,0.123,-0.2625,-0.389,-0.505,0.108,-0.4505,0.1475
0.0225,-0.359,-0.3805,0.168,0.2015,-0.37,-0.0325,0.1805,0.124,-0.2635,-0.3905,-0.509,0.1065,-0.452,0.146
0.0225,-0.361,-0.383,0.169,0.203,-0.372,-0.0285,0.177,0.122,-0.268,-0.3945,-0.5125,0.104,-0.4455,0.147
0.0205,-0.3595,-0.379,0.169,0.2,-0.369,-0.026,0.1905,0.133,-0.259,-0.3865,-0.508,0.1055,-0.4425,0.1425
0.0085,-0.365,-0.3735,0.178,0.191,-0.3695,-0.023,0.1975,0.14,-0.255,-0.384,-0.5065,0.104,-0.4485,0.139
0.0155,-0.3615,-0.3765,0.173,0.1965,-0.369,-0.0215,0.194,0.139,-0.255,-0.384,-0.5065,0.1055,-0.4465,0.138
0.017,-0.3655,-0.382,0.174,0.1995,-0.3735,-0.02,0.1985,0.143,-0.2525,-0.3815,-0.5055,0.106,-0.44,0.1355
0.009,-0.3685,-0.377,0.1795,0.1935,-0.3725,-0.014,0.203,0.1455,-0.2495,-0.3805,-0.5035,0.106,-0.441,0.1325
0.0135,-0.3625,-0.3755,0.1745,0.1945,-0.369,-0.0115,0.2065,0.1495,-0.245,-0.377,-0.5,0.108,-0.45,0.132
0.018,-0.363,-0.38,0.172,0.1995,-0.3715,-0.0125,0.21,0.1515,-0.2435,-0.375,-0.4995,0.1095,-0.458,0.132
0.019,-0.362,-0.38,0.171,0.1995,-0.371,-0.011,0.214,0.154,-0.2395,-0.372,-0.4975,0.1105,-0.45,0.131
0.0165,-0.363,-0.379,0.173,0.198,-0.371,-0.0095,0.2165,0.1575,-0.2375,-0.372,-0.497,0.1105,-0.452,0.129
0.011,-0.367,-0.3775,0.178,0.1945,-0.3725,-0.009,0.214,0.1585,-0.2385,-0.374,-0.4995,0.109,-0.457,0.127
0.009,-0.369,-0.377,0.1795,0.193,-0.373,-0.007,0.2155,0.1585,-0.237,-0.372,-0.4995,0.1065,-0.457,0.125
0.006,-0.3675,-0.3735,0.1805,0.19,-0.3705,-0.007,0.217,0.1575,-0.238,-0.3745,-0.501,0.106,-0.4575,0.1255
0.0055,-0.367,-0.372,0.1805,0.189,-0.3695,-0.007,0.2145,0.1575,-0.2385,-0.375,-0.5015,0.107,-0.4515,0.125
0.01,-0.365,-0.3745,0.1775,0.1925,-0.37,-0.007,0.217,0.1575,-0.2395,-0.373,-0.5015,0.107,-0.4485,0.123
0.0065,-0.366,-0.372,0.1795,0.1895,-0.369,-0.004,0.2185,0.1585,-0.2365,-0.374,-0.501,0.107,-0.444,0.122
0.0045,-0.3675,-0.372,0.181,0.1885,-0.3695,-0.008,0.2185,0.1585,-0.236,-0.3735,-0.502,0.1065,-0.4465,0.121
0.005,-0.368,-0.373,0.181,0.189,-0.37,-0.0085,0.2205,0.159,-0.2365,-0.373,-0.502,0.1065,-0.452,0.1215
0.0055,-0.3685,-0.3735,0.181,0.1895,-0.3705,-0.0055,0.221,0.1605,-0.236,-0.3735,-0.503,0.1075,-0.457,0.119
0.013,-0.3675,-0.3805,0.177,0.197,-0.374,-0.0065,0.2195,0.159,-0.2385,-0.376,-0.505,0.1075,-0.4615,0.1175
0.014,-0.3675,-0.381,0.1765,0.1975,-0.3745,-0.006,0.2215,0.159,-0.2395,-0.3765,-0.5045,0.1075,-0.4585,0.1185
0.0075,-0.3685,-0.3755,0.18,0.1915,-0.372,-0.0015,0.2245,0.1635,-0.2365,-0.373,-0.5005,0.108,-0.4485,0.118
0.002,-0.371,-0.3725,0.1845,0.1875,-0.372,0.002,0.226,0.1665,-0.234,-0.3705,-0.4975,0.1085,-0.4465,0.117
0.0,-0.3715,-0.3715,0.1855,0.186,-0.3715,-0.0035,0.2265,0.164,-0.2335,-0.3705,-0.4995,0.1095,-0.452,0.1165
0.0005,-0.3715,-0.3715,0.185,0.1865,-0.3715,-0.0025,0.227,0.166,-0.231,-0.3695,-0.4985,0.1085,-0.449,0.115
-0.0015,-0.3705,-0.3685,0.1855,0.184,-0.3695,0.0,0.224,0.1655,-0.232,-0.3705,-0.499,0.1065,-0.4495,0.115
0.0035,-0.3665,-0.3695,0.1815,0.1865,-0.368,-0.0005,0.226,0.168,-0.231,-0.3685,-0.4975,0.1085,-0.4555,0.1155
0.0105,-0.364,-0.374,0.1765,0.1925,-0.369,-0.0015,0.2285,0.1725,-0.226,-0.364,-0.494,0.1125,-0.4565,0.1135
0.0145,-0.362,-0.3755,0.1735,0.195,-0.369,-0.0005,0.228,0.173,-0.224,-0.362,-0.4925,0.115,-0.455,0.116
0.01,-0.3645,-0.374,0.177,0.192,-0.369,0.0035,0.23,0.1755,-0.223,-0.361,-0.4905,0.114,-0.454,0.1155
0.004,-0.369,-0.3725,0.1825,0.188,-0.3705,0.0035,0.231,0.176,-0.225,-0.371,-0.4925,0.111,-0.455,0.115
0.005,-0.3675,-0.3725,0.181,0.189,-0.37,0.0045,0.2315,0.176,-0.2255,-0.377,-0.494,0.1095,-0.4575,0.1165
0.003,-0.365,-0.3675,0.1805,0.1855,-0.3665,0.0045,0.231,0.1755,-0.224,-0.3765,-0.496,0.1095,-0.455,0.1145
0.003,-0.365,-0.3675,0.1805,0.1855,-0.3665,0.0035,0.232,0.1765,-0.2235,-0.3775,-0.4955,0.1095,-0.454,0.1145
0.006,-0.364,-0.37,0.179,0.188,-0.367,0.0035,0.233,0.177,-0.224,-0.376,-0.4955,0.1095,-0.459,0.113
0.0125,-0.362,-0.374,0.1745,0.1935,-0.368,0.0055,0.235,0.1785,-0.2205,-0.372,-0.4945,0.113,-0.456,0.113
0.01,-0.364,-0.374,0.177,0.192,-0.369,0.006,0.2365,0.1795,-0.2215,-0.37,-0.496,0.111,-0.452,0.1125
0.004,-0.3645,-0.368,0.18,0.186,-0.3665,0.0065,0.2335,0.177,-0.2255,-0.37,-0.4975,0.108,-0.4565,0.111
0.0115,-0.3615,-0.3725,0.1745,0.1925,-0.367,0.0065,0.238,0.18,-0.222,-0.3655,-0.493,0.1115,-0.4515,0.1095
0.012,-0.362,-0.3735,0.1745,0.193,-0.3675,0.0055,0.243,0.1835,-0.2195,-0.3635,-0.493,0.112,-0.451,0.1065
0.008,-0.3635,-0.371,0.1775,0.1895,-0.367,0.008,0.237,0.179,-0.2235,-0.367,-0.494,0.11,-0.462,0.1075
0.0095,-0.363,-0.372,0.1765,0.191,-0.3675,0.0055,0.2355,0.1765,-0.226,-0.368,-0.4965,0.1105,-0.462,0.111
0.007,-0.365,-0.3715,0.1785,0.19,-0.3685,0.006,0.24,0.18,-0.2235,-0.3665,-0.495,0.1105,-0.457,0.11
0.0,-0.371,-0.3705,0.1855,0.1855,-0.371,0.0085,0.24,0.1815,-0.2235,-0.367,-0.4955,0.108,-0.453,0.108
-0.003,-0.3725,-0.369,0.1875,0.183,-0.3705,0.011,0.2425,0.183,-0.2225,-0.365,-0.4955,0.108,-0.4515,0.108
-0.001,-0.3685,-0.367,0.1845,0.1835,-0.368,0.0115,0.2435,0.185,-0.221,-0.363,-0.4915,0.1105,-0.448,0.1075
-0.0005,-0.371,-0.37,0.186,0.1845,-0.3705,0.01,0.241,0.182,-0.2245,-0.366,-0.4955,0.107,-0.456,0.1065
0.0005,-0.3715,-0.372,0.185,0.1865,-0.372,0.009,0.2425,0.182,-0.225,-0.3665,-0.4955,0.108,-0.4635,0.107
-0.0015,-0.371,-0.369,0.186,0.184,-0.37,0.0065,0.2445,0.181,-0.222,-0.366,-0.4935,0.1105,-0.4615,0.1075
-0.003,-0.374,-0.3705,0.1885,0.1835,-0.372,0.007,0.245,0.1805,-0.221,-0.364,-0.494,0.11,-0.4605,0.1075
0.0005,-0.3725,-0.3725,0.186,0.1865,-0.373,0.0065,0.2445,0.183,-0.222,-0.3635,-0.494,0.1105,-0.454,0.105
0.001,-0.371,-0.3715,0.185,0.1865,-0.3715,0.0085,0.2455,0.182,-0.223,-0.3635,-0.494,0.1095,-0.453,0.1035
-0.0005,-0.3685,-0.3675,0.1845,0.1835,-0.368,0.01,0.246,0.182,-0.224,-0.3645,-0.4945,0.1075,-0.4495,0.105
0.0005,-0.365,-0.3655,0.182,0.1835,-0.3655,0.011,0.246,0.183,-0.223,-0.3625,-0.494,0.1075,-0.4485,0.1025
0.003,-0.3595,-0.362,0.178,0.183,-0.3605,0.0105,0.2455,0.184,-0.2235,-0.363,-0.4945,0.107,-0.454,0.102
0.0075,-0.358,-0.365,0.175,0.1865,-0.3615,0.0085,0.2465,0.1855,-0.222,-0.3645,-0.4945,0.1085,-0.4585,0.103
0.0115,-0.3585,-0.3695,0.1735,0.1905,-0.364,0.006,0.2445,0.182,-0.224,-0.3645,-0.4955,0.1095,-0.4565,0.103
0.0095,-0.3585,-0.3675,0.1745,0.189,-0.363,0.005,0.2455,0.182,-0.224,-0.3665,-0.498,0.1085,-0.4515,0.1025
0.004,-0.3635,-0.367,0.1795,0.186,-0.3655,0.007,0.2475,0.1835,-0.2215,-0.365,-0.4965,0.109,-0.454,0.0995
0.0,-0.3645,-0.364,0.1825,0.182,-0.3645,0.0075,0.246,0.182,-0.2235,-0.367,-0.4985,0.107,-0.4545,0.0995
0.0,-0.3645,-0.364,0.182,0.182,-0.364,0.009,0.2485,0.185,-0.2245,-0.37,-0.499,0.108,-0.4525,0.102
0.0015,-0.3665,-0.3675,0.1825,0.1845,-0.367,0.008,0.246,0.1845,-0.2245,-0.369,-0.498,0.111,-0.4505,0.1025
-0.003,-0.372,-0.3685,0.1875,0.183,-0.3705,0.0085,0.25,0.1865,-0.2225,-0.3675,-0.4995,0.108,-0.452,0.101
-0.004,-0.3735,-0.369,0.1885,0.1825,-0.371,0.0095,0.25,0.186,-0.2235,-0.3685,-0.4985,0.1085,-0.453,0.1025
0.002,-0.3685,-0.37,0.183,0.186,-0.3695,0.008,0.247,0.186,-0.224,-0.3675,-0.4955,0.113,-0.453,0.103
0.0045,-0.367,-0.3715,0.181,0.1885,-0.3695,0.0105,0.2515,0.19,-0.2205,-0.3665,-0.497,0.1105,-0.4535,0.101
0.008,-0.364,-0.372,0.178,0.1905,-0.3685,0.012,0.254,0.191,-0.217,-0.3655,-0.4975,0.1085,-0.454,0.099
0.013,-0.362,-0.374,0.174,0.194,-0.368,0.01,0.256,0.193,-0.216,-0.363,-0.4945,0.1115,-0.4585,0.1005
0.01,-0.362,-0.3715,0.1755,0.191,-0.3665,0.0095,0.2555,0.1925,-0.2165,-0.3645,-0.4945,0.1125,-0.458,0.103
0.0045,-0.366,-0.3705,0.1805,0.188,-0.3685,0.01,0.2555,0.1925,-0.2165,-0.3635,-0.496,0.11,-0.454,0.1
0.003,-0.368,-0.371,0.1825,0.187,-0.3695,0.012,0.2565,0.194,-0.216,-0.362,-0.4955,0.1105,-0.452,0.0995
0.009,-0.3645,-0.3735,0.178,0.1915,-0.369,0.0115,0.2575,0.195,-0.215,-0.3625,-0.496,0.1105,-0.4535,0.0995
0.0095,-0.363,-0.3715,0.1765,0.191,-0.367,0.011,0.2575,0.195,-0.2145,-0.362,-0.498,0.1085,-0.4625,0.0985
0.0055,-0.362,-0.3665,0.178,0.1865,-0.364,0.012,0.257,0.194,-0.217,-0.365,-0.499,0.109,-0.4655,0.0975
0.007,-0.3605,-0.367,0.1765,0.1875,-0.364,0.011,0.258,0.195,-0.217,-0.3675,-0.5,0.1075,-0.4585,0.098
0.009,-0.358,-0.367,0.174,0.1885,-0.3625,0.0115,0.259,0.1975,-0.214,-0.366,-0.499,0.1085,-0.4545,0.0985
0.0075,-0.3585,-0.3655,0.175,0.187,-0.362,0.012,0.2585,0.197,-0.2175,-0.367,-0.5,0.1085,-0.448,0.098
0.004,-0.3605,-0.364,0.178,0.1845,-0.3625,0.0125,0.2585,0.1975,-0.2165,-0.3655,-0.499,0.108,-0.448,0.097
0.017,-0.3545,-0.371,0.1685,0.1945,-0.3625,0.009,0.2605,0.1975,-0.215,-0.366,-0.5,0.109,-0.452,0.096
0.013,-0.3565,-0.3695,0.1715,0.1915,-0.363,0.0105,0.2625,0.197,-0.217,-0.369,-0.502,0.1065,-0.452,0.0965
0.004,-0.362,-0.3655,0.1785,0.1855,-0.364,0.013,0.2635,0.1975,-0.217,-0.369,-0.503,0.105,-0.452,0.096
0.0055,-0.3615,-0.367,0.1775,0.1865,-0.3645,0.012,0.2655,0.1975,-0.217,-0.3705,-0.5045,0.1055,-0.4485,0.096
0.003,-0.3645,-0.367,0.1805,0.1855,-0.366,0.013,0.264,0.1965,-0.218,-0.3695,-0.5025,0.1055,-0.449,0.097
0.0075,-0.363,-0.37,0.1775,0.189,-0.3665,0.0115,0.2655,0.1985,-0.2185,-0.3675,-0.502,0.105,-0.4515,0.0975
0.006,-0.363,-0.3685,0.1785,0.1875,-0.366,0.013,0.2695,0.202,-0.2155,-0.367,-0.5005,0.1055,-0.45,0.0975
0.0065,-0.362,-0.3685,0.1775,0.188,-0.3655,0.0125,0.2685,0.202,-0.2165,-0.3665,-0.4995,0.1065,-0.4495,0.0965
0.008,-0.3615,-0.369,0.1765,0.189,-0.3655,0.0115,0.2705,0.205,-0.213,-0.363,-0.4955,0.1085,-0.453,0.0945
0.0075,-0.362,-0.369,0.177,0.1885,-0.3655,0.013,0.2705,0.206,-0.213,-0.3645,-0.497,0.107,-0.454,0.0945
0.0105,-0.3595,-0.37,0.1745,0.1905,-0.3645,0.012,0.2695,0.203,-0.2155,-0.368,-0.5,0.1055,-0.4515,0.0965
0.0055,-0.362,-0.367,0.178,0.1865,-0.3645,0.015,0.2725,0.205,-0.2125,-0.3635,-0.4965,0.107,-0.453,0.0945
0.007,-0.36,-0.3665,0.1765,0.187,-0.363,0.0125,0.2755,0.208,-0.2115,-0.3625,-0.496,0.108,-0.45,0.094
0.0115,-0.3585,-0.3695,0.173,0.191,-0.364,0.012,0.274,0.2085,-0.212,-0.3655,-0.495,0.109,-0.443,0.0935
0.002,-0.3615,-0.363,0.1795,0.183,-0.362,0.017,0.275,0.209,-0.213,-0.3665,-0.4965,0.1065,-0.444,0.0925
0.0015,-0.3575,-0.3585,0.1775,0.18,-0.358,0.015,0.276,0.209,-0.2125,-0.3655,-0.4975,0.105,-0.445,0.0925
0.0105,-0.351,-0.361,0.17,0.186,-0.356,0.0135,0.2765,0.209,-0.2135,-0.367,-0.4985,0.1055,-0.445,0.092
0.0105,-0.351,-0.361,0.17,0.186,-0.356,0.012,0.279,0.212,-0.2135,-0.368,-0.499,0.1055,-0.4535,0.0915
0.009,-0.3515,-0.3595,0.171,0.1845,-0.3555,0.011,0.2775,0.2125,-0.214,-0.3665,-0.4995,0.105,-0.447,0.0905
0.0085,-0.351,-0.359,0.1705,0.184,-0.355,0.0105,0.2775,0.213,-0.214,-0.3675,-0.5,0.1055,-0.4375,0.091
0.0025,-0.351,-0.353,0.174,0.178,-0.352,0.0125,0.281,0.216,-0.2115,-0.3645,-0.4965,0.1085,-0.438,0.089
-0.003,-0.3545,-0.3505,0.1785,0.174,-0.3525,0.014,0.279,0.214,-0.217,-0.3685,-0.502,0.1055,-0.435,0.0885
0.005,-0.3525,-0.3575,0.1735,0.1815,-0.355,0.01,0.2785,0.2125,-0.2195,-0.373,-0.505,0.104,-0.443,0.091
0.019,-0.344,-0.3625,0.162,0.191,-0.3535,0.0095,0.2865,0.2175,-0.2125,-0.368,-0.499,0.1095,-0.45,0.091
0.017,-0.3475,-0.3635,0.165,0.1905,-0.3555,0.0115,0.2895,0.2205,-0.211,-0.368,-0.499,0.1095,-0.4465,0.0905
0.0085,-0.3525,-0.3605,0.1715,0.185,-0.3565,0.0135,0.291,0.222,-0.2125,-0.368,-0.5005,0.107,-0.446,0.0905
0.008,-0.355,-0.363,0.173,0.186,-0.359,0.0165,0.291,0.2215,-0.214,-0.3695,-0.502,0.104,-0.4495,0.091
0.006,-0.3595,-0.365,0.1765,0.186,-0.362,0.018,0.2905,0.221,-0.2155,-0.3715,-0.5045,0.1015,-0.444,0.089
0.006,-0.359,-0.3645,0.176,0.1855,-0.3615,0.015,0.295,0.223,-0.2155,-0.3715,-0.505,0.103,-0.445,0.09
0.006,-0.361,-0.3665,0.1775,0.1865,-0.3635,0.0155,0.2935,0.2225,-0.2145,-0.373,-0.505,0.102,-0.4435,0.0905
0.004,-0.36,-0.3635,0.178,0.184,-0.362,0.0165,0.294,0.2235,-0.2135,-0.372,-0.5045,0.102,-0.44,0.0895
0.008,-0.356,-0.364,0.1735,0.186,-0.36,0.0165,0.298,0.224,-0.2115,-0.3725,-0.502,0.1045,-0.444,0.0895
0.0095,-0.354,-0.363,0.172,0.1865,-0.3585,0.016,0.299,0.2235,-0.2115,-0.373,-0.501,0.106,-0.4375,0.088
0.01,-0.351,-0.36,0.17,0.1855,-0.3555,0.017,0.3025,0.228,-0.2105,-0.37,-0.5005,0.106,-0.4445,0.087
0.0135,-0.35,-0.3625,0.168,0.188,-0.356,0.015,0.302,0.2285,-0.21,-0.372,-0.501,0.107,-0.4475,0.086
0.014,-0.349,-0.3625,0.167,0.1885,-0.3555,0.013,0.303,0.228,-0.21,-0.3715,-0.5005,0.108,-0.4415,0.086
0.014,-0.3465,-0.36,0.166,0.187,-0.353,0.0145,0.304,0.227,-0.212,-0.3715,-0.502,0.106,-0.436,0.0835
0.0145,-0.3465,-0.3605,0.1655,0.188,-0.3535,0.015,0.306,0.227,-0.2125,-0.373,-0.5035,0.1055,-0.434,0.084
0.015,-0.346,-0.3605,0.1655,0.1875,-0.353,0.015,0.308,0.229,-0.212,-0.3715,-0.5015,0.1055,-0.436,0.087
0.0175,-0.341,-0.3585,0.1615,0.188,-0.35,0.015,0.3035,0.227,-0.2125,-0.3715,-0.5015,0.106,-0.4325,0.0855
0.0205,-0.3395,-0.3595,0.1595,0.19,-0.3495,0.0145,0.308,0.2335,-0.2105,-0.3685,-0.498,0.1095,-0.4365,0.0835
0.0195,-0.337,-0.356,0.1585,0.188,-0.3465,0.0135,0.3115,0.236,-0.2095,-0.3675,-0.497,0.111,-0.438,0.083
0.018,-0.335,-0.3525,0.1585,0.1855,-0.344,0.0155,0.312,0.236,-0.21,-0.369,-0.4985,0.1095,-0.4325,0.083
0.018,-0.3355,-0.353,0.1585,0.1855,-0.344,0.0145,0.3195,0.24,-0.2075,-0.3675,-0.4975,0.1105,-0.43,0.082
0.0195,-0.336,-0.355,0.158,0.1875,-0.3455,0.0135,0.316,0.237,-0.2085,-0.373,-0.497,0.11,-0.4255,0.0845
0.02,-0.3405,-0.36,0.16,0.1905,-0.35,0.02,0.3215,0.2445,-0.209,-0.3845,-0.4995,0.106,-0.4255,0.0845
0.019,-0.34,-0.3585,0.16,0.189,-0.349,0.0185,0.325,0.245,-0.207,-0.387,-0.498,0.106,-0.4275,0.084
0.025,-0.3325,-0.3575,0.1535,0.1915,-0.345,0.0135,0.32,0.239,-0.208,-0.3835,-0.497,0.1085,-0.4215,0.085
0.0265,-0.3335,-0.3595,0.153,0.1935,-0.3465,0.0165,0.327,0.247,-0.2055,-0.3785,-0.4975,0.1095,-0.43,0.0825
0.023,-0.335,-0.3575,0.1555,0.1905,-0.346,0.018,0.327,0.249,-0.2045,-0.3765,-0.497,0.1095,-0.4355,0.081
0.018,-0.337,-0.355,0.159,0.1865,-0.346,0.0215,0.331,0.25,-0.2035,-0.3735,-0.498,0.107,-0.43,0.08
0.0085,-0.343,-0.3505,0.167,0.18,-0.347,0.0235,0.332,0.253,-0.202,-0.3715,-0.497,0.1075,-0.432,0.08
0.015,-0.3375,-0.3525,0.161,0.184,-0.345,0.0235,0.3355,0.258,-0.1995,-0.37,-0.494,0.1095,-0.432,0.0805
0.024,-0.332,-0.356,0.1535,0.1905,-0.344,0.0245,0.34,0.261,-0.1975,-0.368,-0.494,0.1105,-0.43,0.078
0.0265,-0.327,-0.3535,0.15,0.1905,-0.3405,0.023,0.3385,0.2605,-0.201,-0.3695,-0.4955,0.11,-0.4225,0.079
0.0295,-0.321,-0.35,0.1455,0.19,-0.3355,0.0225,0.345,0.264,-0.199,-0.3665,-0.4935,0.1115,-0.426,0.0785
0.028,-0.3205,-0.348,0.146,0.1885,-0.3345,0.0215,0.3445,0.2615,-0.2025,-0.3685,-0.4945,0.1115,-0.4365,0.0775
0.032,-0.3185,-0.35,0.143,0.1915,-0.3345,0.0215,0.3435,0.262,-0.203,-0.371,-0.495,0.111,-0.433,0.0785
0.031,-0.317,-0.3475,0.1425,0.1895,-0.332,0.0235,0.347,0.2655,-0.2,-0.371,-0.4945,0.1125,-0.4295,0.0765
0.0275,-0.318,-0.345,0.145,0.1865,-0.3315,0.022,0.3445,0.2625,-0.2045,-0.3735,-0.4985,0.1095,-0.4265,0.076
0.026,-0.317,-0.342,0.145,0.1845,-0.3295,0.0235,0.348,0.2645,-0.204,-0.3735,-0.497,0.1095,-0.422,0.0735
0.0215,-0.317,-0.3385,0.1475,0.1805,-0.3275,0.0245,0.352,0.266,-0.204,-0.3735,-0.4955,0.1105,-0.4185,0.0725
0.025,-0.317,-0.3415,0.146,0.1835,-0.3295,0.0245,0.351,0.2635,-0.2085,-0.3775,-0.4975,0.1085,-0.4135,0.072
0.029,-0.3145,-0.343,0.1425,0.1865,-0.3285,0.0265,0.355,0.267,-0.207,-0.378,-0.4975,0.11,-0.41,0.0715
0.027,-0.313,-0.3395,0.1425,0.1835,-0.326,0.024,0.3565,0.268,-0.2065,-0.3835,-0.498,0.1085,-0.4145,0.0735
0.029,-0.3125,-0.341,0.1415,0.1855,-0.3265,0.0235,0.358,0.2685,-0.209,-0.39,-0.498,0.107,-0.419,0.074
0.033,-0.3125,-0.3445,0.1395,0.189,-0.3285,0.0235,0.3615,0.2705,-0.208,-0.3905,-0.4975,0.1085,-0.413,0.0745
0.0275,-0.3105,-0.3375,0.1415,0.183,-0.324,0.023,0.362,0.27,-0.2115,-0.395,-0.499,0.106,-0.408,0.073
0.0275,-0.309,-0.336,0.1405,0.182,-0.3225,0.025,0.3625,0.2685,-0.213,-0.3945,-0.501,0.1025,-0.4145,0.0715
0.0325,-0.3065,-0.338,0.1365,0.1855,-0.3225,0.0235,0.365,0.2705,-0.213,-0.39,-0.5005,0.1025,-0.4135,0.0715
0.03,-0.303,-0.3325,0.136,0.1815,-0.318,0.0225,0.3655,0.2725,-0.2135,-0.389,-0.5,0.1035,-0.403,0.0725
0.023,-0.3045,-0.3275,0.1405,0.1755,-0.316,0.0255,0.368,0.2735,-0.2135,-0.389,-0.502,0.101,-0.4,0.07
0.0265,-0.301,-0.3275,0.137,0.177,-0.314,0.0275,0.3715,0.274,-0.2165,-0.392,-0.504,0.0995,-0.399,0.069
0.026,-0.3015,-0.3275,0.1375,0.177,-0.3145,0.026,0.373,0.2755,-0.216,-0.393,-0.5035,0.099,-0.4075,0.0685
0.026,-0.299,-0.325,0.1365,0.1755,-0.312,0.025,0.3775,0.2765,-0.2165,-0.3965,-0.5065,0.097,-0.41,0.066
0.031,-0.293,-0.3235,0.1305,0.1775,-0.3085,0.0255,0.3765,0.272,-0.2205,-0.3995,-0.508,0.0965,-0.4035,0.0655
0.0315,-0.2915,-0.3225,0.13,0.177,-0.307,0.022,0.376,0.2715,-0.2225,-0.4,-0.507,0.097,-0.401,0.0655
0.037,-0.288,-0.3245,0.1255,0.181,-0.306,0.022,0.379,0.274,-0.2215,-0.4,-0.5075,0.0985,-0.396,0.0635
0.031,-0.2905,-0.3215,0.1295,0.1765,-0.306,0.026,0.3785,0.2735,-0.2235,-0.4015,-0.5095,0.0955,-0.389,0.0635
0.0315,-0.2895,-0.321,0.129,0.1765,-0.3055,0.0245,0.379,0.2745,-0.2265,-0.403,-0.5105,0.095,-0.391,0.064
0.036,-0.2895,-0.325,0.1265,0.181,-0.307,0.024,0.381,0.276,-0.227,-0.406,-0.512,0.094,-0.397,0.0625
0.0345,-0.293,-0.327,0.129,0.181,-0.31,0.025,0.379,0.274,-0.2335,-0.4105,-0.518,0.089,-0.3965,0.066
0.036,-0.2915,-0.3265,0.1275,0.1815,-0.309,0.0245,0.3805,0.2725,-0.235,-0.4115,-0.517,0.0905,-0.3965,0.0655
0.0345,-0.2915,-0.3255,0.128,0.1805,-0.3085,0.0245,0.38,0.269,-0.238,-0.413,-0.5165,0.09,-0.393,0.066
0.037,-0.2925,-0.3285,0.1275,0.183,-0.3105,0.0245,0.38,0.2685,-0.243,-0.4155,-0.518,0.0885,-0.3885,0.067
0.0385,-0.292,-0.3295,0.1265,0.184,-0.3105,0.022,0.383,0.2695,-0.244,-0.4165,-0.5155,0.088,-0.3925,0.067
0.033,-0.2965,-0.3295,0.1315,0.1815,-0.313,0.023,0.382,0.268,-0.2455,-0.4185,-0.517,0.0865,-0.395,0.069
0.032,-0.2925,-0.3245,0.13,0.1785,-0.3085,0.024,0.382,0.267,-0.2495,-0.4225,-0.5195,0.0845,-0.388,0.068
0.0315,-0.2905,-0.3215,0.1295,0.1765,-0.306,0.022,0.3805,0.2645,-0.256,-0.4275,-0.522,0.082,-0.3855,0.068
0.031,-0.2955,-0.326,0.132,0.1785,-0.3105,0.0235,0.3815,0.2635,-0.2565,-0.4315,-0.524,0.081,-0.387,0.068
0.035,-0.2925,-0.3265,0.1285,0.181,-0.3095,0.023,0.3795,0.2625,-0.2595,-0.434,-0.525,0.0795,-0.3895,0.07
0.032,-0.2925,-0.324,0.13,0.1785,-0.308,0.025,0.3795,0.262,-0.2635,-0.4355,-0.5245,0.0765,-0.391,0.07
0.031,-0.293,-0.3235,0.131,0.1775,-0.308,0.026,0.381,0.2595,-0.268,-0.44,-0.527,0.075,-0.3875,0.069
0.026,-0.296,-0.3215,0.135,0.174,-0.309,0.0235,0.3755,0.254,-0.2755,-0.4485,-0.533,0.0725,-0.383,0.0695
0.027,-0.2925,-0.3185,0.1325,0.173,-0.3055,0.0235,0.3795,0.2545,-0.279,-0.451,-0.5335,0.071,-0.374,0.07
0.0345,-0.285,-0.319,0.125,0.177,-0.302,0.023,0.379,0.2495,-0.284,-0.454,-0.5355,0.0685,-0.3735,0.071
0.046,-0.275,-0.3205,0.114,0.1835,-0.298,0.018,0.3735,0.2435,-0.2905,-0.459,-0.537,0.068,-0.385,0.0725
0.057,-0.2665,-0.3235,0.1045,0.1905,-0.295,0.0135,0.3755,0.242,-0.294,-0.462,-0.5365,0.0685,-0.391,0.077
0.048,-0.269,-0.3165,0.1105,0.1825,-0.293,0.015,0.37,0.2345,-0.303,-0.47,-0.5425,0.0615,-0.382,0.0785
0.042,-0.2695,-0.3115,0.1135,0.177,-0.2905,0.014,0.366,0.2295,-0.3105,-0.4755,-0.545,0.0585,-0.3705,0.079
0.041,-0.273,-0.3135,0.116,0.177,-0.293,0.012,0.3625,0.2245,-0.3175,-0.481,-0.547,0.0575,-0.3735,0.078
0.0335,-0.274,-0.307,0.12,0.1705,-0.2905,0.0145,0.3595,0.2205,-0.3225,-0.486,-0.548,0.054,-0.3745,0.0775
0.0305,-0.274,-0.304,0.1215,0.1675,-0.289,0.013,0.359,0.217,-0.3275,-0.49,-0.5495,0.0515,-0.371,0.079
0.038,-0.272,-0.3095,0.117,0.174,-0.291,0.0075,0.3565,0.2125,-0.3355,-0.495,-0.554,0.0495,-0.3715,0.082
0.0465,-0.2655,-0.3115,0.109,0.1795,-0.2885,0.0085,0.3555,0.209,-0.339,-0.4975,-0.554,0.05,-0.3675,0.0845
0.045,-0.2635,-0.3085,0.109,0.177,-0.286,0.009,0.353,0.204,-0.346,-0.504,-0.5575,0.044,-0.3625,0.085
0.0355,-0.269,-0.304,0.1165,0.17,-0.2865,0.011,0.3455,0.1985,-0.355,-0.5125,-0.5625,0.0355,-0.367,0.0885
0.031,-0.271,-0.301,0.12,0.1665,-0.286,0.011,0.342,0.1935,-0.3605,-0.517,-0.5655,0.0355,-0.369,0.0885
0.0395,-0.2665,-0.3055,0.1135,0.173,-0.286,0.009,0.342,0.189,-0.3675,-0.523,-0.5685,0.0335,-0.3645,0.0895
0.0415,-0.2675,-0.3085,0.113,0.175,-0.288,0.0095,0.337,0.1815,-0.3735,-0.53,-0.5705,0.03,-0.3625,0.0915
0.032,-0.2705,-0.302,0.119,0.1675,-0.2865,0.0095,0.329,0.172,-0.3825,-0.5375,-0.575,0.025,-0.367,0.095
0.033,-0.268,-0.3005,0.1175,0.167,-0.2845,0.0075,0.326,0.167,-0.3885,-0.5415,-0.576,0.0225,-0.3625,0.0985
0.0395,-0.2615,-0.3005,0.111,0.17,-0.281,0.0065,0.3255,0.1645,-0.39,-0.5415,-0.5735,0.0245,-0.356,0.097
0.0395,-0.2615,-0.3005,0.111,0.1705,-0.281,0.0055,0.3175,0.155,-0.402,-0.5515,-0.5795,0.019,-0.361,0.101
0.041,-0.258,-0.2985,0.108,0.17,-0.278,0.0025,0.312,0.147,-0.412,-0.5605,-0.5845,0.0155,-0.3615,0.1055
0.042,-0.2545,-0.296,0.106,0.1695,-0.275,0.0015,0.3085,0.1415,-0.417,-0.564,-0.5845,0.015,-0.3615,0.1085
0.0445,-0.252,-0.296,0.1035,0.1705,-0.274,-0.003,0.297,0.13,-0.4285,-0.5725,-0.589,0.011,-0.3585,0.1115
0.0495,-0.2465,-0.2955,0.098,0.173,-0.271,-0.006,0.2925,0.125,-0.436,-0.5755,-0.591,0.01,-0.3575,0.115
0.047,-0.2475,-0.294,0.1,0.1705,-0.2705,-0.0045,0.2825,0.115,-0.446,-0.581,-0.594,0.006,-0.361,0.1185
0.046,-0.248,-0.2935,0.1005,0.17,-0.2705,-0.0115,0.277,0.1055,-0.4555,-0.589,-0.596,0.004,-0.357,0.1205
0.049,-0.2465,-0.295,0.0985,0.1725,-0.271,-0.014,0.273,0.0975,-0.4645,-0.5945,-0.5975,0.0025,-0.352,0.124
0.0435,-0.247,-0.2895,0.1015,0.167,-0.2685,-0.013,0.2585,0.084,-0.477,-0.6025,-0.6025,-0.001,-0.3475,0.127
0.0465,-0.2445,-0.2905,0.0985,0.169,-0.2675,-0.02,0.2485,0.073,-0.4895,-0.612,-0.608,-0.004,-0.3465,0.132
0.0525,-0.241,-0.293,0.094,0.173,-0.267,-0.021,0.244,0.064,-0.5,-0.6175,-0.612,-0.0075,-0.346,0.1345
0.0535,-0.239,-0.2925,0.0925,0.1735,-0.2655,-0.0195,0.24,0.057,-0.506,-0.6205,-0.6115,-0.01,-0.3455,0.1355
0.0565,-0.2395,-0.296,0.0915,0.1765,-0.268,-0.0235,0.228,0.046,-0.511,-0.625,-0.6115,-0.0105,-0.348,0.1395
0.0475,-0.248,-0.295,0.1,0.1715,-0.2715,-0.0245,0.2215,0.036,-0.5215,-0.633,-0.6155,-0.0145,-0.3435,0.1435
0.038,-0.2535,-0.2905,0.1075,0.1645,-0.272,-0.0255,0.2075,0.022,-0.536,-0.643,-0.621,-0.0235,-0.3375,0.1465
0.039,-0.252,-0.29,0.106,0.165,-0.271,-0.028,0.1975,0.011,-0.543,-0.647,-0.623,-0.0255,-0.34,0.15
0.046,-0.251,-0.2965,0.102,0.1715,-0.2735,-0.032,0.194,0.0035,-0.551,-0.655,-0.626,-0.0265,-0.343,0.153
0.0445,-0.252,-0.2955,0.1035,0.17,-0.274,-0.0375,0.179,-0.011,-0.562,-0.6625,-0.631,-0.0305,-0.3385,0.158
0.046,-0.251,-0.296,0.102,0.1715,-0.2735,-0.0385,0.1735,-0.019,-0.569,-0.6675,-0.633,-0.0345,-0.3395,0.1625
0.047,-0.248,-0.2945,0.1005,0.171,-0.2715,-0.0375,0.166,-0.0275,-0.579,-0.6755,-0.636,-0.04,-0.3455,0.1635
0.0485,-0.248,-0.296,0.0995,0.1725,-0.272,-0.0405,0.1505,-0.043,-0.589,-0.68,-0.639,-0.042,-0.349,0.169
0.059,-0.245,-0.3035,0.0925,0.1815,-0.274,-0.046,0.141,-0.055,-0.5965,-0.686,-0.6415,-0.041,-0.351,0.1735
0.061,-0.238,-0.2985,0.0885,0.1795,-0.2685,-0.045,0.14,-0.061,-0.603,-0.6905,-0.6435,-0.0455,-0.339,0.175
0.0545,-0.2375,-0.2915,0.091,0.1735,-0.2645,-0.0495,0.129,-0.073,-0.616,-0.697,-0.6485,-0.0505,-0.3445,0.1825
0.0455,-0.244,-0.289,0.099,0.1675,-0.2665,-0.058,0.1155,-0.0865,-0.6255,-0.7035,-0.651,-0.0525,-0.351,0.1875
0.052,-0.241,-0.2925,0.094,0.1725,-0.2665,-0.0585,0.11,-0.0915,-0.6295,-0.7045,-0.651,-0.053,-0.346,0.19
0.0485,-0.2425,-0.29,0.097,0.1695,-0.2665,-0.06,0.1025,-0.1005,-0.637,-0.7105,-0.656,-0.056,-0.3525,0.192
0.038,-0.251,-0.2885,0.1065,0.1635,-0.2695,-0.058,0.0935,-0.11,-0.644,-0.716,-0.658,-0.061,-0.353,0.1915
0.0475,-0.2445,-0.2915,0.098,0.17,-0.268,-0.061,0.0885,-0.1165,-0.65,-0.717,-0.658,-0.0595,-0.349,0.1945
0.0525,-0.2415,-0.2935,0.094,0.173,-0.2675,-0.0655,0.081,-0.1235,-0.655,-0.7195,-0.6595,-0.058,-0.348,0.198
0.0515,-0.241,-0.292,0.0945,0.172,-0.2665,-0.064,0.075,-0.1295,-0.659,-0.7205,-0.659,-0.0615,-0.355,0.2
0.0445,-0.245,-0.2895,0.1,0.1675,-0.267,-0.065,0.0685,-0.137,-0.6635,-0.7225,-0.66,-0.0625,-0.3585,0.201
0.0435,-0.251,-0.294,0.1035,0.169,-0.2725,-0.066,0.064,-0.141,-0.666,-0.724,-0.66,-0.061,-0.3555,0.2045
0.0445,-0.255,-0.299,0.105,0.172,-0.277,-0.065,0.06,-0.1455,-0.667,-0.723,-0.66,-0.0635,-0.358,0.207
0.043,-0.2565,-0.2985,0.1065,0.171,-0.2775,-0.0635,0.057,-0.1455,-0.664,-0.7205,-0.656,-0.063,-0.3595,0.206
0.0385,-0.254,-0.292,0.1075,0.1655,-0.273,-0.0635,0.0565,-0.146,-0.663,-0.718,-0.653,-0.0615,-0.3575,0.207
0.0375,-0.256,-0.293,0.109,0.1655,-0.2745,-0.0645,0.052,-0.1505,-0.6605,-0.717,-0.653,-0.06,-0.363,0.2095
0.038,-0.2595,-0.297,0.1105,0.1675,-0.2785,-0.0675,0.0475,-0.1515,-0.66,-0.716,-0.653,-0.058,-0.3655,0.2125
0.0385,-0.2625,-0.3005,0.1115,0.17,-0.2815,-0.069,0.044,-0.1545,-0.661,-0.7155,-0.6535,-0.0575,-0.359,0.2135
0.0455,-0.2585,-0.304,0.1065,0.175,-0.281,-0.069,0.0435,-0.154,-0.6555,-0.712,-0.651,-0.0545,-0.364,0.2115
0.036,-0.2605,-0.2955,0.112,0.166,-0.278,-0.066,0.045,-0.15,-0.6495,-0.7075,-0.648,-0.0535,-0.373,0.2105
0.0385,-0.262,-0.2995,0.1115,0.1695,-0.281,-0.068,0.0435,-0.15,-0.6465,-0.7045,-0.6475,-0.052,-0.372,0.2095
0.0445,-0.26,-0.304,0.1075,0.1745,-0.282,-0.0725,0.041,-0.1495,-0.6435,-0.701,-0.6465,-0.0485,-0.366,0.2105
0.035,-0.2615,-0.296,0.113,0.1655,-0.2785,-0.0695,0.043,-0.1455,-0.638,-0.695,-0.6445,-0.049,-0.3685,0.2085
0.032,-0.263,-0.2945,0.1155,0.1635,-0.279,-0.067,0.041,-0.1455,-0.636,-0.6925,-0.6435,-0.0495,-0.371,0.208
0.035,-0.265,-0.2995,0.115,0.1675,-0.2825,-0.068,0.04,-0.1445,-0.632,-0.6895,-0.6445,-0.049,-0.369,0.208
0.035,-0.266,-0.3005,0.1155,0.168,-0.2835,-0.0695,0.038,-0.143,-0.6275,-0.6855,-0.643,-0.046,-0.3735,0.206
0.03,-0.266,-0.2955,0.118,0.163,-0.281,-0.0705,0.039,-0.1405,-0.6195,-0.675,-0.6355,-0.04,-0.378,0.2065
0.0295,-0.263,-0.292,0.1165,0.161,-0.2775,-0.0705,0.044,-0.135,-0.61,-0.6655,-0.629,-0.0345,-0.3735,0.2045
0.03,-0.263,-0.2925,0.1165,0.1615,-0.2775,-0.0695,0.041,-0.132,-0.604,-0.6585,-0.6235,-0.03,-0.37,0.2045
0.028,-0.267,-0.295,0.1195,0.162,-0.281,-0.0715,0.043,-0.1255,-0.5935,-0.6505,-0.6195,-0.027,-0.3725,0.203
0.0245,-0.2725,-0.2965,0.124,0.1605,-0.2845,-0.0675,0.046,-0.118,-0.5825,-0.6425,-0.616,-0.0235,-0.3715,0.1995
0.0215,-0.2775,-0.298,0.128,0.16,-0.288,-0.069,0.049,-0.1125,-0.574,-0.6345,-0.61,-0.0175,-0.375,0.1995
0.0195,-0.283,-0.302,0.1315,0.161,-0.2925,-0.067,0.0585,-0.1005,-0.564,-0.629,-0.6085,-0.0165,-0.378,0.1945
0.016,-0.2885,-0.3035,0.136,0.16,-0.296,-0.063,0.0565,-0.0995,-0.554,-0.6155,-0.6015,-0.0115,-0.375,0.193
0.019,-0.2865,-0.3045,0.133,0.162,-0.2955,-0.066,0.0585,-0.0965,-0.5425,-0.6045,-0.597,-0.0065,-0.3805,0.191
0.0295,-0.2805,-0.3095,0.125,0.1695,-0.295,-0.0625,0.068,-0.083,-0.5305,-0.595,-0.5925,-0.0005,-0.381,0.187
0.0345,-0.279,-0.313,0.122,0.174,-0.296,-0.064,0.068,-0.0775,-0.521,-0.587,-0.587,0.004,-0.3795,0.19
0.0275,-0.282,-0.309,0.127,0.1685,-0.2955,-0.0605,0.071,-0.072,-0.5135,-0.583,-0.586,0.0025,-0.3825,0.1865
0.028,-0.283,-0.3105,0.127,0.1695,-0.2965,-0.0605,0.0735,-0.0665,-0.504,-0.574,-0.581,0.0075,-0.3815,0.1825
0.033,-0.2815,-0.314,0.1235,0.174,-0.2975,-0.063,0.0795,-0.057,-0.4915,-0.5635,-0.576,0.016,-0.3825,0.183
0.0355,-0.2795,-0.314,0.1215,0.1745,-0.297,-0.063,0.084,-0.0495,-0.4825,-0.556,-0.5725,0.021,-0.391,0.1805
0.0335,-0.279,-0.312,0.122,0.173,-0.2955,-0.062,0.085,-0.044,-0.4735,-0.548,-0.5685,0.025,-0.3975,0.1765
0.0335,-0.275,-0.308,0.1205,0.171,-0.2915,-0.063,0.087,-0.039,-0.465,-0.5415,-0.5655,0.03,-0.39,0.176
0.0345,-0.274,-0.308,0.1195,0.1715,-0.291,-0.065,0.0895,-0.035,-0.456,-0.5335,-0.563,0.034,-0.3765,0.175
0.0335,-0.2765,-0.3095,0.121,0.1715,-0.293,-0.0615,0.0935,-0.028,-0.447,-0.5235,-0.5575,0.0385,-0.372,0.1735
0.032,-0.278,-0.3095,0.1225,0.171,-0.2935,-0.0655,0.0915,-0.0245,-0.4415,-0.518,-0.555,0.0425,-0.3805,0.174
0.026,-0.279,-0.3045,0.126,0.166,-0.2915,-0.062,0.096,-0.0175,-0.431,-0.5085,-0.549,0.0455,-0.3825,0.168
0.0355,-0.276,-0.311,0.12,0.1735,-0.2935,-0.0665,0.0955,-0.013,-0.4245,-0.502,-0.5435,0.051,-0.3855,0.169
0.041,-0.2785,-0.319,0.1185,0.18,-0.299,-0.0675,0.0985,-0.0085,-0.4155,-0.4935,-0.5385,0.0575,-0.391,0.1685
0.0325,-0.285,-0.317,0.126,0.175,-0.3005,-0.0625,0.105,-0.0005,-0.406,-0.484,-0.532,0.0615,-0.3925,0.166
0.0365,-0.288,-0.324,0.1255,0.1805,-0.306,-0.0675,0.1095,0.007,-0.396,-0.475,-0.526,0.0695,-0.3975,0.164
0.038,-0.292,-0.3295,0.127,0.1835,-0.3105,-0.064,0.1155,0.014,-0.387,-0.468,-0.521,0.0735,-0.3905,0.161
0.0345,-0.295,-0.3295,0.13,0.1825,-0.3125,-0.0605,0.1155,0.0185,-0.3805,-0.463,-0.519,0.0715,-0.386,0.16
0.022,-0.3045,-0.326,0.141,0.174,-0.3155,-0.0595,0.118,0.0235,-0.375,-0.4595,-0.519,0.071,-0.394,0.1565
0.0175,-0.31,-0.3265,0.146,0.172,-0.318,-0.062,0.116,0.023,-0.3725,-0.458,-0.519,0.0735,-0.403,0.156
0.0325,-0.3025,-0.3345,0.1345,0.184,-0.3185,-0.0625,0.125,0.033,-0.359,-0.4445,-0.51,0.0815,-0.399,0.151
0.0315,-0.2995,-0.3305,0.134,0.181,-0.315,-0.063,0.13,0.0405,-0.352,-0.439,-0.506,0.083,-0.396,0.1485
0.0345,-0.2965,-0.3305,0.131,0.1825,-0.3135,-0.0595,0.1295,0.041,-0.3495,-0.435,-0.506,0.082,-0.3985,0.149
0.0265,-0.3025,-0.329,0.1375,0.178,-0.316,-0.057,0.1335,0.0495,-0.341,-0.427,-0.5015,0.0855,-0.4025,0.147
0.035,-0.3025,-0.337,0.1335,0.1865,-0.3195,-0.062,0.135,0.058,-0.3315,-0.4205,-0.496,0.092,-0.402,0.1455
0.0485,-0.296,-0.344,0.1235,0.1965,-0.32,-0.061,0.1365,0.0615,-0.3235,-0.413,-0.491,0.0995,-0.397,0.1435
0.0255,-0.3035,-0.3285,0.139,0.1775,-0.316,-0.0565,0.1425,0.066,-0.3195,-0.4115,-0.4925,0.0965,-0.4075,0.142
0.0225,-0.303,-0.3255,0.14,0.174,-0.314,-0.057,0.143,0.068,-0.318,-0.411,-0.4935,0.094,-0.4095,0.14
0.024,-0.3015,-0.3255,0.1385,0.175,-0.3135,-0.0515,0.1395,0.0685,-0.315,-0.4075,-0.492,0.0965,-0.401,0.1405
0.0215,-0.3035,-0.3245,0.1405,0.1735,-0.314,-0.051,0.1415,0.0725,-0.3125,-0.406,-0.4925,0.098,-0.4,0.139
0.0275,-0.303,-0.3305,0.1375,0.179,-0.317,-0.0595,0.14,0.0715,-0.311,-0.4045,-0.4945,0.1005,-0.405,0.1385
0.0295,-0.3005,-0.3295,0.135,0.1795,-0.315,-0.057,0.1455,0.0765,-0.303,-0.3955,-0.4895,0.104,-0.403,0.134
0.0225,-0.302,-0.324,0.1395,0.173,-0.313,-0.0535,0.1455,0.08,-0.3,-0.393,-0.4855,0.106,-0.401,0.133
0.0215,-0.3045,-0.3255,0.141,0.174,-0.315,-0.0545,0.1525,0.084,-0.2955,-0.3885,-0.484,0.1095,-0.4015,0.1335
0.025,-0.2995,-0.3245,0.137,0.175,-0.312,-0.057,0.1515,0.0875,-0.2885,-0.3835,-0.4815,0.1125,-0.399,0.1315
0.0255,-0.301,-0.3265,0.1375,0.176,-0.3135,-0.0565,0.1495,0.091,-0.283,-0.379,-0.478,0.1165,-0.403,0.129
0.028,-0.303,-0.331,0.1375,0.18,-0.317,-0.0545,0.1555,0.0955,-0.279,-0.3745,-0.476,0.1175,-0.4045,0.127
0.026,-0.303,-0.3285,0.1385,0.177,-0.3155,-0.0555,0.1545,0.098,-0.274,-0.3725,-0.474,0.119,-0.4025,0.129
0.028,-0.303,-0.331,0.1375,0.1795,-0.317,-0.05,0.1645,0.107,-0.267,-0.3635,-0.469,0.123,-0.401,0.128
0.034,-0.3025,-0.336,0.134,0.1855,-0.319,-0.0475,0.1665,0.1095,-0.265,-0.362,-0.468,0.1235,-0.3995,0.1265
0.0295,-0.308,-0.337,0.1395,0.1835,-0.3225,-0.0495,0.164,0.109,-0.262,-0.364,-0.4705,0.1225,-0.401,0.126
0.022,-0.314,-0.3355,0.1455,0.179,-0.325,-0.0515,0.162,0.109,-0.263,-0.365,-0.472,0.121,-0.4025,0.1275
0.033,-0.3045,-0.337,0.1355,0.1855,-0.321,-0.053,0.1685,0.115,-0.2585,-0.3605,-0.4685,0.123,-0.406,0.127
0.0435,-0.299,-0.342,0.1275,0.193,-0.3205,-0.05,0.171,0.116,-0.2565,-0.359,-0.468,0.1245,-0.4055,0.1265
0.0385,-0.3025,-0.3405,0.132,0.1895,-0.3215,-0.048,0.169,0.115,-0.253,-0.3585,-0.4665,0.126,-0.406,0.1265
0.038,-0.3,-0.3375,0.131,0.188,-0.319,-0.0525,0.172,0.1155,-0.2525,-0.359,-0.466,0.127,-0.405,0.1265
0.0405,-0.2975,-0.3375,0.1285,0.1895,-0.3175,-0.0535,0.1665,0.111,-0.2575,-0.3615,-0.468,0.125,-0.4045,0.127
0.037,-0.2955,-0.3325,0.129,0.185,-0.314,-0.0515,0.1675,0.112,-0.2555,-0.361,-0.4705,0.121,-0.4005,0.124
0.035,-0.2935,-0.328,0.1295,0.1815,-0.311,-0.0525,0.1685,0.1135,-0.2555,-0.361,-0.472,0.1215,-0.3995,0.1235
0.0325,-0.292,-0.324,0.1295,0.1785,-0.308,-0.052,0.1685,0.117,-0.25,-0.3545,-0.466,0.1235,-0.396,0.1205
0.0275,-0.293,-0.32,0.1325,0.174,-0.3065,-0.0535,0.1695,0.115,-0.253,-0.358,-0.471,0.1205,-0.395,0.118
0.0315,-0.2905,-0.3215,0.129,0.177,-0.306,-0.0525,0.17,0.118,-0.25,-0.3555,-0.4715,0.1215,-0.3995,0.118
0.0445,-0.2855,-0.329,0.1205,0.187,-0.307,-0.0555,0.1735,0.1235,-0.2425,-0.348,-0.464,0.1305,-0.395,0.1185
0.0425,-0.288,-0.3295,0.1225,0.1865,-0.309,-0.0545,0.1745,0.1245,-0.241,-0.3475,-0.462,0.133,-0.3995,0.119
0.0465,-0.285,-0.3305,0.119,0.189,-0.3075,-0.05,0.1775,0.1255,-0.2375,-0.3445,-0.461,0.1315,-0.401,0.1195
0.0485,-0.285,-0.333,0.118,0.191,-0.309,-0.0505,0.1795,0.1275,-0.2355,-0.3435,-0.4605,0.1345,-0.4035,0.12
0.048,-0.2865,-0.334,0.119,0.1915,-0.31,-0.05,0.183,0.133,-0.231,-0.3405,-0.4575,0.135,-0.4005,0.117
0.049,-0.2865,-0.335,0.1185,0.192,-0.311,-0.0505,0.182,0.131,-0.23,-0.34,-0.458,0.1335,-0.3975,0.1185
0.041,-0.29,-0.3305,0.1245,0.186,-0.3105,-0.0475,0.18,0.129,-0.23,-0.3405,-0.46,0.1305,-0.4055,0.12
0.043,-0.292,-0.3345,0.124,0.189,-0.313,-0.046,0.1825,0.1295,-0.231,-0.341,-0.461,0.1295,-0.407,0.1195
0.048,-0.2905,-0.3385,0.121,0.1935,-0.3145,-0.0475,0.184,0.131,-0.228,-0.339,-0.458,0.133,-0.399,0.121
0.0515,-0.287,-0.338,0.117,0.195,-0.3125,-0.0475,0.186,0.134,-0.2225,-0.3335,-0.4535,0.135,-0.394,0.12
0.0475,-0.2895,-0.3365,0.1205,0.1925,-0.313,-0.0465,0.185,0.1335,-0.2245,-0.334,-0.453,0.135,-0.399,0.1235
0.041,-0.293,-0.3335,0.1255,0.1875,-0.313,-0.044,0.1875,0.1355,-0.223,-0.331,-0.449,0.136,-0.403,0.1245
0.0385,-0.2965,-0.335,0.129,0.187,-0.316,-0.0415,0.1875,0.136,-0.2225,-0.33,-0.4485,0.1345,-0.403,0.1225
0.046,-0.2915,-0.337,0.1225,0.192,-0.3145,-0.043,0.1885,0.139,-0.22,-0.3265,-0.446,0.139,-0.4025,0.123
0.0525,-0.2875,-0.3395,0.117,0.1965,-0.3135,-0.044,0.1915,0.1415,-0.2155,-0.3245,-0.4445,0.144,-0.403,0.122
0.052,-0.2895,-0.3415,0.1185,0.197,-0.3155,-0.0465,0.188,0.1395,-0.2195,-0.3295,-0.448,0.1425,-0.3975,0.1205
0.044,-0.2925,-0.336,0.124,0.1905,-0.3145,-0.0465,0.1885,0.141,-0.219,-0.328,-0.448,0.1425,-0.398,0.12
0.0445,-0.2955,-0.34,0.1255,0.192,-0.318,-0.0465,0.1885,0.1415,-0.218,-0.33,-0.4495,0.139,-0.4065,0.119
0.056,-0.292,-0.3475,0.118,0.202,-0.32,-0.0485,0.193,0.1455,-0.216,-0.328,-0.4485,0.1405,-0.4135,0.119
0.0555,-0.2955,-0.35,0.1195,0.203,-0.3225,-0.0485,0.191,0.143,-0.216,-0.3275,-0.449,0.1445,-0.412,0.1205
0.0585,-0.293,-0.351,0.117,0.205,-0.322,-0.05,0.1875,0.142,-0.2145,-0.328,-0.4485,0.1445,-0.396,0.117
0.057,-0.289,-0.3455,0.116,0.2015,-0.317,-0.05,0.1915,0.1455,-0.214,-0.3285,-0.45,0.1435,-0.397,0.118
0.0525,-0.29,-0.342,0.1185,0.1975,-0.316,-0.048,0.1935,0.1425,-0.2185,-0.3295,-0.451,0.1425,-0.403,0.121
0.061,-0.289,-0.3495,0.1135,0.2055,-0.319,-0.0535,0.1935,0.143,-0.2165,-0.3265,-0.448,0.1435,-0.395,0.1185
0.058,-0.289,-0.3465,0.115,0.203,-0.318,-0.054,0.1905,0.1435,-0.2155,-0.326,-0.447,0.1455,-0.399,0.1195
0.047,-0.2905,-0.337,0.1215,0.1925,-0.314,-0.049,0.191,0.142,-0.2165,-0.325,-0.4475,0.1425,-0.397,0.1165
0.0445,-0.293,-0.337,0.124,0.191,-0.315,-0.0495,0.1895,0.141,-0.218,-0.328,-0.4485,0.14,-0.387,0.116
0.047,-0.287,-0.333,0.12,0.1905,-0.31,-0.047,0.1915,0.1415,-0.215,-0.325,-0.444,0.143,-0.3855,0.119
0.051,-0.2835,-0.3345,0.116,0.193,-0.309,-0.0475,0.19,0.139,-0.218,-0.327,-0.447,0.1415,-0.3935,0.1185
0.049,-0.2855,-0.3335,0.118,0.1915,-0.3095,-0.0495,0.1885,0.137,-0.2185,-0.3285,-0.4495,0.1405,-0.395,0.118
0.0455,-0.2855,-0.3305,0.12,0.1885,-0.308,-0.05,0.1935,0.1395,-0.2145,-0.3255,-0.4465,0.144,-0.39,0.1185
0.041,-0.2875,-0.3275,0.123,0.1845,-0.3075,-0.05,0.1895,0.141,-0.217,-0.3275,-0.4465,0.1455,-0.3925,0.119
0.04,-0.2875,-0.327,0.1235,0.1835,-0.307,-0.0465,0.1905,0.143,-0.215,-0.326,-0.446,0.143,-0.3955,0.116
0.0485,-0.2845,-0.3325,0.1175,0.191,-0.3085,-0.048,0.193,0.1445,-0.2145,-0.328,-0.449,0.1415,-0.4035,0.115
0.0565,-0.2805,-0.337,0.1115,0.197,-0.3085,-0.0485,0.191,0.144,-0.2145,-0.33,-0.45,0.1415,-0.4005,0.1155
0.049,-0.283,-0.3315,0.1165,0.1905,-0.307,-0.0455,0.191,0.143,-0.215,-0.33,-0.45,0.141,-0.391,0.116
0.0455,-0.286,-0.331,0.12,0.1885,-0.3085,-0.0475,0.191,0.142,-0.2175,-0.331,-0.4535,0.142,-0.394,0.118
0.0525,-0.285,-0.337,0.116,0.195,-0.311,-0.049,0.194,0.1435,-0.215,-0.3305,-0.4525,0.146,-0.39,0.118
0.0445,-0.2855,-0.329,0.12,0.187,-0.307,-0.0465,0.197,0.146,-0.212,-0.328,-0.4495,0.147,-0.389,0.116
0.0475,-0.283,-0.33,0.1175,0.189,-0.3065,-0.0485,0.193,0.1445,-0.2135,-0.326,-0.4505,0.148,-0.3965,0.1155
0.0515,-0.2825,-0.3335,0.115,0.193,-0.308,-0.0505,0.1905,0.1435,-0.215,-0.3265,-0.451,0.1485,-0.3985,0.114
0.048,-0.282,-0.329,0.1165,0.1885,-0.3055,-0.049,0.1935,0.146,-0.2145,-0.326,-0.4495,0.1495,-0.398,0.1165
0.0485,-0.28,-0.328,0.1155,0.1885,-0.304,-0.0505,0.193,0.1455,-0.2135,-0.325,-0.4495,0.1515,-0.3965,0.118
0.0525,-0.279,-0.331,0.113,0.192,-0.305,-0.049,0.194,0.1475,-0.212,-0.323,-0.4475,0.152,-0.3935,0.116
0.056,-0.2775,-0.333,0.1105,0.1945,-0.305,-0.0465,0.197,0.15,-0.211,-0.3225,-0.447,0.151,-0.3865,0.1165
0.0485,-0.285,-0.333,0.118,0.191,-0.309,-0.047,0.1955,0.149,-0.2105,-0.3235,-0.4465,0.15,-0.388,0.115
0.0475,-0.288,-0.335,0.12,0.1915,-0.3115,-0.0475,0.196,0.1495,-0.2095,-0.3225,-0.446,0.1495,-0.39,0.1135
0.0465,-0.2895,-0.3355,0.121,0.1915,-0.3125,-0.047,0.198,0.1505,-0.209,-0.3205,-0.4455,0.149,-0.3995,0.1135
0.0445,-0.2925,-0.3365,0.1235,0.1905,-0.3145,-0.0435,0.198,0.152,-0.208,-0.3205,-0.4435,0.15,-0.4015,0.1155
0.0475,-0.2875,-0.3345,0.12,0.1915,-0.311,-0.0405,0.2,0.1525,-0.206,-0.3185,-0.443,0.1485,-0.3915,0.1135
0.046,-0.29,-0.335,0.122,0.1905,-0.3125,-0.0415,0.201,0.153,-0.2055,-0.317,-0.4425,0.149,-0.3955,0.1145
0.0475,-0.2895,-0.3365,0.121,0.192,-0.313,-0.042,0.1995,0.1535,-0.205,-0.317,-0.442,0.149,-0.3925,0.115
0.0475,-0.29,-0.337,0.121,0.1925,-0.3135,-0.0405,0.1995,0.1515,-0.2045,-0.318,-0.4425,0.147,-0.387,0.1125
0.0425,-0.2925,-0.3345,0.125,0.189,-0.3135,-0.043,0.199,0.151,-0.2055,-0.319,-0.4425,0.1475,-0.383,0.114
0.041,-0.2925,-0.333,0.1255,0.187,-0.3125,-0.044,0.2025,0.151,-0.208,-0.322,-0.4445,0.1455,-0.3895,0.113
0.044,-0.2905,-0.334,0.123,0.1895,-0.312,-0.046,0.1995,0.148,-0.2085,-0.3215,-0.446,0.1455,-0.3975,0.1135
0.0415,-0.2875,-0.3285,0.1225,0.1855,-0.308,-0.0455,0.194,0.146,-0.2075,-0.3205,-0.445,0.145,-0.3975,0.1145
0.034,-0.288,-0.3215,0.1265,0.178,-0.3045,-0.043,0.1945,0.1455,-0.2095,-0.323,-0.4455,0.143,-0.394,0.114
0.04,-0.2855,-0.325,0.1225,0.1825,-0.305,-0.048,0.196,0.1485,-0.209,-0.322,-0.446,0.146,-0.388,0.112
0.0415,-0.289,-0.33,0.1235,0.186,-0.3095,-0.048,0.2035,0.156,-0.2075,-0.3225,-0.4465,0.1475,-0.394,0.1115
0.046,-0.2825,-0.328,0.118,0.1875,-0.3055,-0.045,0.1995,0.1525,-0.2065,-0.3195,-0.4435,0.146,-0.396,0.11
0.058,-0.2705,-0.3285,0.106,0.1935,-0.2995,-0.0465,0.196,0.148,-0.207,-0.3195,-0.443,0.1465,-0.396,0.11
0.053,-0.2735,-0.326,0.11,0.19,-0.3,-0.047,0.1985,0.1515,-0.209,-0.3215,-0.4445,0.1485,-0.3905,0.112
0.049,-0.277,-0.3255,0.1135,0.1875,-0.3015,-0.0445,0.1985,0.1525,-0.207,-0.3175,-0.441,0.149,-0.377,0.111
0.0425,-0.279,-0.3205,0.118,0.1815,-0.2995,-0.0445,0.1975,0.1505,-0.2065,-0.32,-0.443,0.145,-0.3805,0.109
0.046,-0.2815,-0.327,0.1175,0.1865,-0.304,-0.044,0.199,0.1505,-0.206,-0.317,-0.442,0.146,-0.387,0.1095
0.058,-0.277,-0.3345,0.1095,0.1965,-0.3055,-0.046,0.203,0.156,-0.2015,-0.313,-0.437,0.1515,-0.3805,0.1085
0.052,-0.279,-0.33,0.113,0.1915,-0.3045,-0.047,0.202,0.1555,-0.2025,-0.314,-0.4385,0.1505,-0.386,0.1105
0.0475,-0.286,-0.333,0.119,0.1905,-0.3095,-0.0445,0.2015,0.1545,-0.203,-0.3135,-0.441,0.1475,-0.4,0.1115
0.0515,-0.282,-0.333,0.115,0.1925,-0.3075,-0.0485,0.202,0.1575,-0.2005,-0.314,-0.4395,0.1495,-0.399,0.1135
0.047,-0.284,-0.33,0.118,0.189,-0.307,-0.045,0.2025,0.157,-0.2005,-0.3125,-0.437,0.15,-0.397,0.113
0.049,-0.2795,-0.328,0.115,0.1885,-0.304,-0.041,0.202,0.158,-0.1985,-0.3105,-0.435,0.151,-0.394,0.111
0.056,-0.276,-0.3315,0.1095,0.194,-0.304,-0.047,0.202,0.1585,-0.196,-0.308,-0.434,0.1535,-0.387,0.1125
0.0495,-0.2785,-0.3275,0.1145,0.189,-0.303,-0.0455,0.2025,0.1585,-0.1965,-0.3085,-0.435,0.152,-0.385,0.111
0.0535,-0.2745,-0.328,0.11,0.191,-0.3015,-0.0425,0.204,0.161,-0.195,-0.308,-0.4345,0.1535,-0.3835,0.11
0.0535,-0.2755,-0.3285,0.1105,0.191,-0.302,-0.0435,0.204,0.1615,-0.1955,-0.308,-0.434,0.155,-0.3805,0.11
0.0495,-0.2755,-0.325,0.1125,0.1875,-0.3,-0.043,0.204,0.161,-0.1975,-0.3115,-0.435,0.1545,-0.377,0.1125
0.05,-0.279,-0.328,0.1145,0.1895,-0.3035,-0.0435,0.202,0.159,-0.199,-0.312,-0.437,0.1535,-0.386,0.114
0.047,-0.28,-0.3265,0.116,0.1875,-0.3035,-0.0455,0.2,0.157,-0.201,-0.3125,-0.438,0.153,-0.394,0.114
0.052,-0.2785,-0.33,0.113,0.1915,-0.304,-0.044,0.203,0.1575,-0.1975,-0.311,-0.435,0.1565,-0.3865,0.1105
0.0565,-0.2745,-0.3305,0.109,0.1935,-0.3025,-0.045,0.202,0.1575,-0.197,-0.3085,-0.434,0.158,-0.3825,0.109
0.062,-0.272,-0.3335,0.1045,0.198,-0.3025,-0.0475,0.203,0.1585,-0.198,-0.308,-0.433,0.1605,-0.39,0.1135
0.057,-0.275,-0.3315,0.109,0.1945,-0.303,-0.0465,0.2025,0.158,-0.1985,-0.3095,-0.432,0.1605,-0.3935,0.1145
0.05,-0.275,-0.325,0.112,0.188,-0.3,-0.048,0.2,0.156,-0.199,-0.3095,-0.431,0.1605,-0.3905,0.1135
0.055,-0.277,-0.3315,0.1105,0.1935,-0.3045,-0.048,0.2005,0.1565,-0.1975,-0.3065,-0.4285,0.1635,-0.389,0.112
0.0535,-0.2835,-0.3365,0.115,0.195,-0.31,-0.046,0.199,0.153,-0.1995,-0.3085,-0.4295,0.161,-0.391,0.114
0.0505,-0.2825,-0.333,0.1155,0.192,-0.308,-0.0445,0.1985,0.154,-0.2,-0.3065,-0.4265,0.163,-0.3955,0.1135
0.0465,-0.277,-0.323,0.115,0.185,-0.3,-0.0435,0.2045,0.159,-0.1945,-0.3005,-0.4205,0.1645,-0.388,0.111
0.0505,-0.274,-0.324,0.1115,0.1875,-0.299,-0.0435,0.208,0.1595,-0.1945,-0.3015,-0.4215,0.162,-0.3835,0.112
0.058,-0.273,-0.3305,0.107,0.1945,-0.302,-0.045,0.202,0.1575,-0.1945,-0.303,-0.421,0.166,-0.3795,0.1135
0.057,-0.274,-0.3305,0.1085,0.194,-0.302,-0.0465,0.1985,0.155,-0.194,-0.3045,-0.4235,0.166,-0.376,0.112
0.053,-0.2725,-0.3255,0.1095,0.1895,-0.299,-0.0435,0.201,0.159,-0.194,-0.306,-0.4245,0.163,-0.385,0.111
0.043,-0.278,-0.3205,0.1175,0.182,-0.299,-0.045,0.202,0.159,-0.193,-0.3055,-0.4255,0.163,-0.389,0.1125
0.043,-0.2785,-0.321,0.1175,0.1825,-0.3,-0.048,0.1985,0.1565,-0.1935,-0.307,-0.427,0.1645,-0.383,0.113
0.047,-0.2735,-0.32,0.113,0.184,-0.297,-0.05,0.2,0.1585,-0.1915,-0.3065,-0.427,0.1655,-0.3795,0.114
0.051,-0.2705,-0.3215,0.1095,0.1865,-0.296,-0.0515,0.1995,0.1575,-0.1935,-0.308,-0.429,0.1625,-0.384,0.1145
0.057,-0.2645,-0.321,0.1035,0.1895,-0.293,-0.0505,0.1965,0.156,-0.194,-0.306,-0.428,0.1615,-0.3855,0.1145
0.054,-0.2665,-0.3205,0.106,0.1875,-0.2935,-0.0475,0.2,0.158,-0.192,-0.3035,-0.4275,0.1615,-0.3865,0.114
0.0535,-0.2665,-0.3195,0.106,0.187,-0.293,-0.0485,0.198,0.156,-0.195,-0.304,-0.4265,0.16,-0.382,0.115
0.052,-0.2655,-0.317,0.1065,0.1845,-0.2915,-0.049,0.1985,0.155,-0.194,-0.3015,-0.427,0.161,-0.375,0.113
0.0465,-0.2715,-0.318,0.112,0.1825,-0.295,-0.0465,0.2,0.1555,-0.194,-0.304,-0.4275,0.1615,-0.384,0.111
0.051,-0.273,-0.3235,0.1105,0.1875,-0.298,-0.05,0.1985,0.157,-0.1935,-0.3025,-0.4265,0.165,-0.381,0.1115
0.0525,-0.2725,-0.324,0.1095,0.1885,-0.2985,-0.0505,0.2,0.1575,-0.192,-0.2995,-0.4255,0.1655,-0.3735,0.111
0.048,-0.272,-0.3195,0.1115,0.1845,-0.296,-0.049,0.202,0.1585,-0.192,-0.3005,-0.425,0.1655,-0.3875,0.113
0.053,-0.273,-0.3255,0.11,0.1895,-0.2995,-0.051,0.2005,0.159,-0.1925,-0.2995,-0.4245,0.167,-0.389,0.114
0.0555,-0.2755,-0.3305,0.11,0.193,-0.303,-0.049,0.2005,0.16,-0.192,-0.3,-0.424,0.167,-0.3875,0.113
0.054,-0.274,-0.3275,0.1095,0.191,-0.301,-0.047,0.202,0.1595,-0.1905,-0.3,-0.4235,0.167,-0.395,0.1125
0.0595,-0.2695,-0.328,0.105,0.194,-0.299,-0.0505,0.201,0.158,-0.1895,-0.2995,-0.422,0.1675,-0.398,0.1135
0.0565,-0.271,-0.327,0.107,0.192,-0.299,-0.05,0.2025,0.1605,-0.188,-0.2955,-0.418,0.171,-0.3915,0.1135
0.048,-0.276,-0.3235,0.113,0.186,-0.3,-0.0485,0.198,0.1565,-0.1925,-0.2955,-0.4195,0.168,-0.388,0.1135
0.048,-0.276,-0.323,0.1135,0.1855,-0.2995,-0.0485,0.1965,0.157,-0.1915,-0.294,-0.42,0.1675,-0.381,0.1115
0.0475,-0.2755,-0.3225,0.1135,0.185,-0.299,-0.0475,0.2005,0.1595,-0.189,-0.2915,-0.4165,0.17,-0.3695,0.1105
0.055,-0.27,-0.325,0.1075,0.1905,-0.2975,-0.0485,0.1985,0.1565,-0.189,-0.2935,-0.4165,0.169,-0.38,0.1115
0.057,-0.2655,-0.3225,0.104,0.19,-0.294,-0.05,0.197,0.157,-0.189,-0.2925,-0.4155,0.1695,-0.3815,0.109
0.053,-0.2655,-0.318,0.106,0.186,-0.292,-0.0495,0.1965,0.158,-0.1885,-0.2935,-0.415,0.1695,-0.38,0.108
0.055,-0.263,-0.3175,0.104,0.1865,-0.29,-0.0515,0.1945,0.1585,-0.1885,-0.2945,-0.418,0.169,-0.381,0.108
0.0465,-0.267,-0.3135,0.11,0.18,-0.2905,-0.0515,0.1935,0.156,-0.193,-0.2975,-0.42,0.166,-0.382,0.1085
0.0435,-0.2685,-0.3115,0.1125,0.1775,-0.29,-0.0485,0.193,0.1535,-0.1945,-0.3015,-0.422,0.164,-0.3825,0.109
0.0485,-0.2645,-0.313,0.108,0.181,-0.289,-0.0485,0.1965,0.157,-0.193,-0.299,-0.4215,0.166,-0.3765,0.109
0.0515,-0.2655,-0.3165,0.1065,0.1845,-0.291,-0.049,0.1955,0.157,-0.195,-0.3045,-0.4245,0.164,-0.38,0.109
0.047,-0.2655,-0.312,0.109,0.1795,-0.2885,-0.0495,0.192,0.154,-0.198,-0.317,-0.429,0.1605,-0.381,0.108
0.0475,-0.266,-0.3135,0.109,0.181,-0.29,-0.0485,0.193,0.1545,-0.198,-0.318,-0.4275,0.162,-0.382,0.1085
0.0575,-0.2635,-0.3205,0.103,0.1895,-0.292,-0.0515,0.1925,0.1535,-0.1975,-0.3185,-0.427,0.1635,-0.382,0.1105
0.054,-0.2685,-0.322,0.107,0.1885,-0.295,-0.052,0.194,0.154,-0.1945,-0.3155,-0.4265,0.1645,-0.381,0.1095
0.052,-0.2745,-0.326,0.111,0.1895,-0.3,-0.051,0.195,0.1555,-0.196,-0.3105,-0.427,0.1635,-0.3795,0.11
0.041,-0.2805,-0.3215,0.1195,0.1815,-0.301,-0.0495,0.195,0.154,-0.198,-0.3105,-0.4285,0.161,-0.3835,0.112
0.0275,-0.2865,-0.3135,0.129,0.171,-0.3,-0.045,0.1925,0.15,-0.1995,-0.3115,-0.4325,0.156,-0.3875,0.111
0.0315,-0.2845,-0.3155,0.1265,0.1735,-0.3,-0.0465,0.189,0.147,-0.2045,-0.3135,-0.434,0.1555,-0.3855,0.112
0.0415,-0.281,-0.322,0.1195,0.182,-0.3015,-0.049,0.1915,0.149,-0.198,-0.31,-0.428,0.1605,-0.3825,0.113
0.042,-0.281,-0.3225,0.119,0.1825,-0.3015,-0.0495,0.192,0.148,-0.199,-0.309,-0.4275,0.1615,-0.384,0.1155
0.04,-0.286,-0.3255,0.1225,0.183,-0.306,-0.05,0.188,0.147,-0.2015,-0.3085,-0.427,0.1625,-0.383,0.117
0.0495,-0.2835,-0.3325,0.1165,0.1915,-0.308,-0.0505,0.19,0.149,-0.198,-0.304,-0.4225,0.166,-0.374,0.1125
0.045,-0.2855,-0.33,0.1195,0.188,-0.3075,-0.0505,0.19,0.151,-0.1975,-0.303,-0.422,0.166,-0.375,0.113
0.0425,-0.286,-0.328,0.1215,0.186,-0.307,-0.0475,0.1895,0.15,-0.2,-0.304,-0.424,0.1655,-0.37,0.113
0.0375,-0.2875,-0.3245,0.1245,0.1815,-0.306,-0.047,0.188,0.146,-0.205,-0.309,-0.429,0.161,-0.3795,0.112
0.027,-0.293,-0.3195,0.133,0.1735,-0.306,-0.0465,0.182,0.142,-0.2045,-0.311,-0.4315,0.157,-0.3805,0.1105
0.029,-0.292,-0.321,0.1315,0.1755,-0.3065,-0.0455,0.184,0.142,-0.205,-0.31,-0.4325,0.158,-0.374,0.1115
0.027,-0.292,-0.3185,0.1325,0.173,-0.305,-0.0485,0.1865,0.142,-0.206,-0.3175,-0.4345,0.1575,-0.3825,0.114
0.0345,-0.2835,-0.3175,0.1245,0.176,-0.3005,-0.052,0.188,0.1435,-0.2045,-0.3245,-0.4335,0.158,-0.3795,0.1125
0.0505,-0.272,-0.322,0.1105,0.1865,-0.297,-0.05,0.1855,0.142,-0.2065,-0.3265,-0.4325,0.1585,-0.389,0.118
0.0595,-0.2625,-0.3215,0.1015,0.191,-0.292,-0.054,0.1825,0.1365,-0.212,-0.3275,-0.433,0.159,-0.39,0.122
0.05,-0.267,-0.3165,0.1085,0.1835,-0.292,-0.055,0.1815,0.1345,-0.215,-0.326,-0.4365,0.1575,-0.388,0.122
0.041,-0.2725,-0.313,0.1155,0.177,-0.2925,-0.0535,0.1785,0.1345,-0.2155,-0.326,-0.438,0.156,-0.383,0.122
0.041,-0.272,-0.3125,0.1155,0.177,-0.292,-0.054,0.1795,0.135,-0.2145,-0.322,-0.4375,0.1555,-0.376,0.119
0.038,-0.2775,-0.315,0.1195,0.177,-0.2965,-0.051,0.1785,0.1355,-0.214,-0.3205,-0.4365,0.1555,-0.3715,0.119
0.0465,-0.275,-0.321,0.114,0.184,-0.298,-0.0515,0.1805,0.137,-0.212,-0.319,-0.435,0.16,-0.371,0.1195
0.042,-0.278,-0.32,0.1175,0.1815,-0.299,-0.051,0.182,0.1375,-0.2125,-0.3165,-0.4345,0.158,-0.379,0.1175
0.036,-0.281,-0.316,0.1225,0.176,-0.2985,-0.049,0.177,0.137,-0.214,-0.317,-0.4345,0.157,-0.384,0.1195
0.0375,-0.2815,-0.3185,0.122,0.178,-0.3,-0.0485,0.1805,0.1395,-0.21,-0.315,-0.4335,0.159,-0.391,0.119
0.0435,-0.282,-0.325,0.119,0.1845,-0.3035,-0.048,0.187,0.143,-0.2075,-0.3135,-0.432,0.1605,-0.379,0.1185
0.0395,-0.2805,-0.3195,0.12,0.18,-0.2995,-0.0455,0.1845,0.1415,-0.2095,-0.312,-0.4315,0.1605,-0.377,0.12
0.0285,-0.286,-0.3145,0.1285,0.172,-0.3,-0.046,0.183,0.139,-0.212,-0.3155,-0.4335,0.158,-0.3855,0.1175
0.0365,-0.285,-0.321,0.124,0.179,-0.303,-0.046,0.182,0.1395,-0.2095,-0.315,-0.4325,0.1595,-0.384,0.1145
0.038,-0.28,-0.3175,0.1205,0.178,-0.299,-0.0505,0.1785,0.137,-0.2095,-0.314,-0.431,0.162,-0.3785,0.115
0.0405,-0.2755,-0.3155,0.1175,0.1785,-0.2955,-0.057,0.181,0.1375,-0.2115,-0.3155,-0.4315,0.163,-0.3745,0.117
0.0405,-0.276,-0.3155,0.1175,0.178,-0.2955,-0.054,0.18,0.1345,-0.214,-0.319,-0.4345,0.1605,-0.38,0.1165
0.032,-0.2795,-0.3105,0.1235,0.171,-0.2945,-0.054,0.1755,0.13,-0.218,-0.3235,-0.438,0.155,-0.386,0.118
0.0335,-0.278,-0.311,0.122,0.1725,-0.2945,-0.054,0.176,0.132,-0.2165,-0.323,-0.4395,0.1555,-0.387,0.117
0.0325,-0.278,-0.31,0.1225,0.1715,-0.294,-0.0565,0.173,0.1285,-0.219,-0.326,-0.4425,0.155,-0.3865,0.1185
0.0395,-0.2745,-0.3135,0.117,0.177,-0.294,-0.057,0.174,0.13,-0.2175,-0.3225,-0.4375,0.1585,-0.3805,0.1175
0.044,-0.273,-0.3165,0.1145,0.1805,-0.2945,-0.055,0.174,0.132,-0.2135,-0.3175,-0.433,0.1635,-0.3725,0.1125
0.0355,-0.2735,-0.3085,0.119,0.172,-0.291,-0.0545,0.1735,0.132,-0.216,-0.317,-0.433,0.161,-0.377,0.113
0.0365,-0.2725,-0.3085,0.118,0.1725,-0.2905,-0.0575,0.171,0.129,-0.2195,-0.32,-0.436,0.1605,-0.3865,0.118
0.028,-0.279,-0.3065,0.125,0.1675,-0.293,-0.057,0.166,0.1255,-0.2235,-0.326,-0.4405,0.1575,-0.3805,0.1205
0.0345,-0.2775,-0.3115,0.121,0.173,-0.2945,-0.055,0.1715,0.128,-0.2205,-0.323,-0.4385,0.1585,-0.372,0.12
0.0365,-0.2765,-0.3125,0.1195,0.175,-0.2945,-0.054,0.174,0.129,-0.219,-0.3225,-0.438,0.157,-0.384,0.1215
0.0255,-0.279,-0.304,0.1265,0.165,-0.2915,-0.0505,0.1725,0.1285,-0.22,-0.324,-0.4385,0.1525,-0.385,0.121
0.036,-0.275,-0.3105,0.1195,0.1735,-0.293,-0.053,0.1705,0.125,-0.221,-0.325,-0.439,0.156,-0.3795,0.1225
0.041,-0.276,-0.3165,0.117,0.179,-0.296,-0.052,0.174,0.1295,-0.2195,-0.324,-0.4375,0.157,-0.384,0.122
0.0315,-0.2845,-0.3155,0.126,0.174,-0.3,-0.051,0.1765,0.1315,-0.218,-0.323,-0.4385,0.1535,-0.3775,0.1205
0.032,-0.286,-0.3175,0.1265,0.175,-0.3015,-0.051,0.1765,0.133,-0.2165,-0.322,-0.4385,0.155,-0.3785,0.1205
0.0385,-0.282,-0.3205,0.1215,0.1795,-0.301,-0.05,0.1795,0.1365,-0.213,-0.32,-0.4375,0.1565,-0.385,0.122
0.033,-0.286,-0.318,0.126,0.176,-0.302,-0.0505,0.1755,0.1315,-0.2155,-0.3225,-0.4405,0.1545,-0.374,0.123
0.0255,-0.2895,-0.314,0.1315,0.17,-0.3015,-0.053,0.1725,0.13,-0.2185,-0.326,-0.442,0.1525,-0.372,0.122
0.023,-0.292,-0.314,0.1345,0.169,-0.303,-0.054,0.1735,0.13,-0.22,-0.328,-0.4445,0.151,-0.383,0.122
0.0295,-0.284,-0.3125,0.127,0.171,-0.298,-0.055,0.1725,0.1305,-0.2195,-0.326,-0.4415,0.154,-0.384,0.1235
0.042,-0.2755,-0.3175,0.1165,0.18,-0.2965,-0.0595,0.1725,0.129,-0.218,-0.327,-0.44,0.157,-0.3845,0.125
0.0455,-0.2755,-0.32,0.115,0.183,-0.2975,-0.0575,0.1735,0.13,-0.2205,-0.3255,-0.4405,0.1575,-0.3865,0.1235
0.0385,-0.2765,-0.3145,0.119,0.1765,-0.2955,-0.053,0.17,0.127,-0.223,-0.3295,-0.443,0.1535,-0.3855,0.124
0.0335,-0.2775,-0.3105,0.1215,0.172,-0.294,-0.054,0.168,0.124,-0.227,-0.3325,-0.4465,0.1495,-0.3865,0.123
0.028,-0.2805,-0.3075,0.126,0.168,-0.294,-0.0545,0.166,0.1225,-0.2285,-0.3315,-0.4465,0.1485,-0.3875,0.1225
0.0285,-0.2815,-0.309,0.126,0.169,-0.2955,-0.055,0.1645,0.1195,-0.231,-0.337,-0.452,0.145,-0.385,0.1235
0.033,-0.276,-0.3085,0.121,0.171,-0.2925,-0.057,0.1665,0.1215,-0.2315,-0.335,-0.452,0.144,-0.3855,0.1215
0.0325,-0.2765,-0.3085,0.122,0.171,-0.2925,-0.054,0.1665,0.12,-0.231,-0.3335,-0.449,0.1445,-0.3875,0.123
0.0345,-0.276,-0.31,0.1205,0.1725,-0.293,-0.0525,0.17,0.124,-0.229,-0.332,-0.448,0.1455,-0.3775,0.123
0.032,-0.2785,-0.3105,0.123,0.1715,-0.2945,-0.0525,0.1695,0.125,-0.2275,-0.3325,-0.447,0.1465,-0.3815,0.124
0.034,-0.2805,-0.314,0.123,0.1745,-0.2975,-0.0495,0.17,0.1235,-0.228,-0.334,-0.4495,0.145,-0.3825,0.1245
0.042,-0.277,-0.3185,0.117,0.1805,-0.2975,-0.053,0.17,0.123,-0.227,-0.3325,-0.451,0.147,-0.3755,0.1235
0.03,-0.285,-0.3145,0.127,0.1725,-0.2995,-0.052,0.168,0.122,-0.2295,-0.3365,-0.4535,0.1435,-0.3875,0.1245
0.017,-0.291,-0.3075,0.1365,0.1625,-0.299,-0.0465,0.1705,0.1225,-0.23,-0.337,-0.4555,0.1375,-0.39,0.123
0.0225,-0.288,-0.31,0.1325,0.1665,-0.2985,-0.0465,0.1715,0.1225,-0.2285,-0.3365,-0.454,0.139,-0.388,0.123
0.022,-0.2895,-0.3105,0.1335,0.1665,-0.3,-0.048,0.172,0.123,-0.2295,-0.336,-0.453,0.138,-0.3855,0.121
0.0225,-0.2865,-0.308,0.1315,0.1655,-0.2975,-0.05,0.1685,0.121,-0.2305,-0.3355,-0.4535,0.1365,-0.386,0.122
0.0355,-0.2795,-0.314,0.1215,0.175,-0.2965,-0.05,0.1735,0.126,-0.229,-0.338,-0.4555,0.138,-0.384,0.122
0.036,-0.2765,-0.312,0.12,0.1745,-0.2945,-0.052,0.169,0.1195,-0.2305,-0.337,-0.4545,0.139,-0.378,0.1215
0.0265,-0.276,-0.302,0.1245,0.1645,-0.289,-0.055,0.1615,0.1115,-0.233,-0.3375,-0.4555,0.1375,-0.373,0.1195
0.0335,-0.2725,-0.3055,0.119,0.17,-0.289,-0.055,0.1635,0.1125,-0.235,-0.343,-0.459,0.1345,-0.37,0.12
0.031,-0.275,-0.3055,0.122,0.1685,-0.29,-0.057,0.16,0.1105,-0.236,-0.3455,-0.4605,0.1355,-0.38,0.1245
0.0265,-0.2765,-0.303,0.1245,0.165,-0.29,-0.057,0.162,0.114,-0.2335,-0.3425,-0.457,0.1385,-0.3775,0.1215
0.033,-0.2735,-0.306,0.12,0.1695,-0.2895,-0.0565,0.163,0.1145,-0.2325,-0.3415,-0.4575,0.138,-0.3795,0.12
0.0225,-0.279,-0.301,0.128,0.162,-0.29,-0.0585,0.1615,0.1115,-0.2345,-0.3425,-0.4605,0.136,-0.3875,0.1215
0.027,-0.2745,-0.301,0.1235,0.1645,-0.2875,-0.0585,0.1625,0.1125,-0.234,-0.339,-0.4575,0.137,-0.384,0.123
0.0385,-0.268,-0.3065,0.1145,0.173,-0.2875,-0.055,0.1645,0.116,-0.234,-0.339,-0.456,0.1375,-0.378,0.1235
0.032,-0.272,-0.3035,0.12,0.168,-0.288,-0.055,0.168,0.1195,-0.231,-0.336,-0.4535,0.1395,-0.3785,0.122
0.021,-0.2805,-0.301,0.1295,0.1615,-0.2905,-0.054,0.163,0.1175,-0.232,-0.3365,-0.4535,0.139,-0.3805,0.124
0.028,-0.281,-0.3085,0.1265,0.1685,-0.295,-0.053,0.1595,0.112,-0.2355,-0.3385,-0.4525,0.1395,-0.3685,0.124
0.0325,-0.2755,-0.308,0.121,0.1705,-0.2915,-0.0565,0.163,0.114,-0.232,-0.3345,-0.452,0.139,-0.375,0.1235
0.025,-0.2755,-0.2995,0.125,0.1625,-0.2875,-0.058,0.164,0.116,-0.233,-0.3355,-0.453,0.136,-0.387,0.125
0.022,-0.278,-0.2995,0.1275,0.161,-0.289,-0.0565,0.162,0.1115,-0.2335,-0.339,-0.4525,0.1365,-0.385,0.1255
0.021,-0.281,-0.302,0.1295,0.162,-0.2915,-0.0555,0.16,0.111,-0.2315,-0.337,-0.451,0.1365,-0.3775,0.124
0.0235,-0.282,-0.305,0.129,0.1645,-0.2935,-0.0515,0.165,0.1155,-0.228,-0.3335,-0.4475,0.139,-0.3705,0.1235
0.0235,-0.284,-0.3065,0.13,0.1655,-0.295,-0.0505,0.1665,0.119,-0.2245,-0.3315,-0.447,0.142,-0.378,0.1255
0.0235,-0.2845,-0.307,0.13,0.1655,-0.2955,-0.0535,0.1675,0.12,-0.2235,-0.3285,-0.4445,0.1445,-0.3835,0.1255
0.013,-0.291,-0.3035,0.1385,0.1585,-0.297,-0.053,0.166,0.1165,-0.2275,-0.333,-0.447,0.143,-0.38,0.1255
0.014,-0.2935,-0.3065,0.1395,0.1605,-0.3,-0.0525,0.1625,0.115,-0.231,-0.337,-0.451,0.1415,-0.375,0.1245
0.0245,-0.2895,-0.3135,0.132,0.169,-0.3015,-0.0525,0.1655,0.116,-0.2305,-0.336,-0.4505,0.1425,-0.3805,0.123
0.0315,-0.285,-0.316,0.1265,0.174,-0.3005,-0.055,0.166,0.1165,-0.231,-0.3365,-0.4495,0.1455,-0.388,0.126
0.03,-0.282,-0.3115,0.1255,0.171,-0.2965,-0.0505,0.1695,0.119,-0.228,-0.3335,-0.4475,0.148,-0.386,0.127
0.0175,-0.2845,-0.3015,0.1335,0.1595,-0.293,-0.0455,0.172,0.12,-0.2265,-0.332,-0.446,0.144,-0.384,0.125
0.025,-0.2805,-0.305,0.1275,0.1655,-0.2925,-0.047,0.1705,0.12,-0.227,-0.333,-0.4455,0.1445,-0.384,0.124
0.031,-0.2805,-0.3115,0.1245,0.1715,-0.296,-0.048,0.1695,0.119,-0.229,-0.335,-0.4475,0.1445,-0.3825,0.1245
0.0295,-0.2795,-0.309,0.1245,0.1695,-0.294,-0.051,0.1675,0.117,-0.23,-0.335,-0.4495,0.1425,-0.3835,0.1265
0.029,-0.2755,-0.304,0.123,0.167,-0.29,-0.05,0.1655,0.116,-0.2295,-0.3345,-0.448,0.1435,-0.389,0.129
0.026,-0.2775,-0.303,0.1255,0.165,-0.2905,-0.0465,0.1635,0.1155,-0.23,-0.334,-0.4455,0.143,-0.383,0.1275
0.029,-0.279,-0.3075,0.1245,0.1685,-0.293,-0.047,0.1635,0.115,-0.231,-0.333,-0.4455,0.142,-0.3795,0.1255
0.0265,-0.2855,-0.311,0.129,0.169,-0.2985,-0.049,0.1625,0.1135,-0.234,-0.3345,-0.446,0.142,-0.383,0.127
0.0135,-0.2925,-0.3055,0.139,0.16,-0.299,-0.0475,0.163,0.1145,-0.234,-0.3375,-0.447,0.1405,-0.377,0.1225
0.0095,-0.296,-0.3055,0.143,0.1575,-0.301,-0.0455,0.1635,0.115,-0.234,-0.3365,-0.4495,0.138,-0.3805,0.1205
0.023,-0.2895,-0.3125,0.133,0.168,-0.301,-0.047,0.166,0.115,-0.2335,-0.336,-0.4475,0.141,-0.382,0.123
0.026,-0.28,-0.3055,0.1265,0.166,-0.2925,-0.046,0.168,0.1165,-0.231,-0.337,-0.446,0.139,-0.3785,0.1265
0.0315,-0.278,-0.309,0.123,0.1705,-0.2935,-0.0505,0.168,0.1155,-0.231,-0.337,-0.4465,0.1395,-0.3885,0.127
0.03,-0.283,-0.3125,0.126,0.1715,-0.2975,-0.049,0.167,0.1135,-0.233,-0.339,-0.448,0.139,-0.389,0.126
0.0175,-0.284,-0.301,0.133,0.1595,-0.2925,-0.046,0.165,0.1115,-0.2355,-0.341,-0.4535,0.132,-0.383,0.1275
0.021,-0.28,-0.3005,0.1295,0.161,-0.29,-0.0525,0.164,0.1115,-0.2355,-0.3385,-0.4525,0.137,-0.3815,0.127
0.0205,-0.2835,-0.3035,0.131,0.1625,-0.2935,-0.053,0.161,0.111,-0.2355,-0.339,-0.4525,0.139,-0.3775,0.1275
0.0165,-0.28,-0.2955,0.1315,0.1565,-0.2875,-0.053,0.157,0.108,-0.2375,-0.343,-0.4565,0.1345,-0.3765,0.125
0.0185,-0.274,-0.292,0.1275,0.1555,-0.283,-0.0525,0.16,0.108,-0.239,-0.3425,-0.457,0.136,-0.3795,0.1255
0.0235,-0.2725,-0.2955,0.124,0.16,-0.284,-0.0555,0.1555,0.1045,-0.242,-0.3435,-0.4565,0.1365,-0.382,0.1295
0.02,-0.2695,-0.289,0.1245,0.1545,-0.2795,-0.058,0.1495,0.1015,-0.2435,-0.344,-0.4555,0.135,-0.3875,0.1295
0.025,-0.2655,-0.2905,0.12,0.158,-0.278,-0.0555,0.155,0.1055,-0.2415,-0.34,-0.452,0.138,-0.3855,0.128
0.026,-0.268,-0.294,0.121,0.16,-0.281,-0.0545,0.158,0.1075,-0.24,-0.3395,-0.452,0.1395,-0.381,0.127
0.0215,-0.272,-0.293,0.125,0.1575,-0.2825,-0.0545,0.156,0.1065,-0.2385,-0.34,-0.4535,0.139,-0.3795,0.1255
0.0285,-0.2675,-0.296,0.1195,0.1625,-0.282,-0.056,0.155,0.108,-0.2355,-0.339,-0.4515,0.141,-0.375,0.125
0.0245,-0.273,-0.297,0.124,0.161,-0.2855,-0.0525,0.159,0.11,-0.238,-0.3415,-0.453,0.14,-0.3725,0.125
0.0275,-0.277,-0.304,0.1245,0.166,-0.2905,-0.0545,0.161,0.111,-0.238,-0.34,-0.452,0.142,-0.374,0.1245
0.027,-0.278,-0.3045,0.125,0.166,-0.291,-0.0535,0.1635,0.114,-0.2365,-0.3405,-0.4505,0.142,-0.3785,0.1265
0.016,-0.286,-0.301,0.1345,0.159,-0.2935,-0.0495,0.163,0.1115,-0.2395,-0.344,-0.4545,0.137,-0.3795,0.125
0.0175,-0.2875,-0.3045,0.1345,0.1615,-0.296,-0.0495,0.162,0.1115,-0.2395,-0.3425,-0.453,0.139,-0.3845,0.1235
0.024,-0.286,-0.309,0.1305,0.167,-0.2975,-0.051,0.164,0.1125,-0.237,-0.342,-0.4535,0.141,-0.389,0.127
0.0255,-0.2855,-0.31,0.1295,0.168,-0.2975,-0.0525,0.1615,0.11,-0.2365,-0.341,-0.4545,0.14,-0.3815,0.1275
0.021,-0.287,-0.307,0.133,0.1645,-0.297,-0.0495,0.163,0.112,-0.2355,-0.3405,-0.453,0.1395,-0.375,0.1285
0.0215,-0.2895,-0.3105,0.1335,0.166,-0.3,-0.0505,0.1635,0.112,-0.237,-0.342,-0.456,0.1385,-0.375,0.1275
0.029,-0.2895,-0.318,0.13,0.174,-0.304,-0.051,0.1635,0.1125,-0.2375,-0.3405,-0.454,0.1405,-0.3755,0.128
0.024,-0.289,-0.3125,0.1325,0.1685,-0.3005,-0.051,0.1645,0.114,-0.2365,-0.338,-0.4525,0.139,-0.3785,0.1265
0.016,-0.29,-0.305,0.1365,0.161,-0.2975,-0.05,0.1635,0.112,-0.238,-0.3395,-0.455,0.1375,-0.385,0.1265
0.018,-0.291,-0.308,0.1365,0.163,-0.2995,-0.05,0.162,0.111,-0.2375,-0.34,-0.452,0.142,-0.3865,0.1305
0.017,-0.289,-0.3055,0.136,0.1615,-0.297,-0.0515,0.1605,0.111,-0.2375,-0.3415,-0.453,0.14,-0.382,0.128
0.0165,-0.287,-0.303,0.135,0.16,-0.295,-0.0485,0.1605,0.1095,-0.2405,-0.345,-0.456,0.1355,-0.3845,0.129
0.0175,-0.286,-0.303,0.134,0.1605,-0.2945,-0.052,0.157,0.106,-0.2435,-0.345,-0.4565,0.1365,-0.3845,0.131
0.0215,-0.2845,-0.3055,0.131,0.164,-0.295,-0.054,0.1545,0.1025,-0.246,-0.3475,-0.4575,0.137,-0.3705,0.1285
0.0175,-0.285,-0.302,0.1335,0.16,-0.2935,-0.0555,0.152,0.0985,-0.25,-0.3485,-0.459,0.135,-0.3705,0.127
0.003,-0.2885,-0.291,0.1425,0.147,-0.2895,-0.0525,0.1495,0.0975,-0.2505,-0.3485,-0.458,0.134,-0.3825,0.1295
0.012,-0.282,-0.2935,0.1345,0.153,-0.2875,-0.052,0.153,0.101,-0.248,-0.3465,-0.454,0.1375,-0.379,0.1285
0.026,-0.275,-0.3005,0.124,0.1635,-0.2875,-0.058,0.1535,0.1025,-0.2465,-0.343,-0.4515,0.1425,-0.379,0.128
0.025,-0.275,-0.2995,0.1245,0.1625,-0.2875,-0.058,0.1525,0.1015,-0.245,-0.341,-0.4495,0.1455,-0.3765,0.1295
0.017,-0.2775,-0.294,0.13,0.1555,-0.286,-0.058,0.152,0.101,-0.245,-0.341,-0.4505,0.144,-0.373,0.1275
0.01,-0.2815,-0.291,0.135,0.151,-0.286,-0.057,0.152,0.1025,-0.2435,-0.342,-0.45,0.143,-0.378,0.1275
0.018,-0.279,-0.2965,0.1305,0.157,-0.2875,-0.061,0.1525,0.1035,-0.2425,-0.342,-0.449,0.146,-0.382,0.13
0.0145,-0.2805,-0.2945,0.133,0.1545,-0.2875,-0.0565,0.155,0.1065,-0.2405,-0.34,-0.449,0.144,-0.385,0.1285
0.013,-0.283,-0.295,0.1345,0.1545,-0.289,-0.0555,0.156,0.1075,-0.239,-0.3405,-0.4505,0.141,-0.379,0.127
0.0215,-0.284,-0.305,0.131,0.1635,-0.2945,-0.061,0.1545,0.1055,-0.2415,-0.3445,-0.4525,0.142,-0.3805,0.1315
0.018,-0.2855,-0.303,0.1335,0.161,-0.294,-0.056,0.1565,0.106,-0.2405,-0.3445,-0.4545,0.141,-0.3795,0.133
0.0175,-0.287,-0.304,0.1345,0.161,-0.2955,-0.0545,0.1555,0.106,-0.24,-0.344,-0.4555,0.14,-0.3825,0.1305
0.0235,-0.2815,-0.3045,0.129,0.164,-0.293,-0.0515,0.1585,0.108,-0.24,-0.3435,-0.4555,0.1395,-0.3805,0.129
0.023,-0.276,-0.2985,0.126,0.161,-0.287,-0.051,0.161,0.109,-0.2385,-0.344,-0.4565,0.137,-0.3725,0.127
0.023,-0.2765,-0.299,0.1265,0.1615,-0.2875,-0.053,0.157,0.1055,-0.243,-0.348,-0.4595,0.1345,-0.3705,0.126
0.022,-0.2765,-0.298,0.127,0.16,-0.287,-0.054,0.1535,0.1045,-0.244,-0.3505,-0.4615,0.135,-0.3735,0.1255
0.0175,-0.279,-0.2965,0.1305,0.157,-0.2875,-0.055,0.1555,0.1055,-0.242,-0.3495,-0.462,0.135,-0.3795,0.1255
0.0165,-0.279,-0.2955,0.131,0.156,-0.287,-0.0545,0.158,0.1055,-0.243,-0.3495,-0.4625,0.133,-0.3715,0.125
0.016,-0.281,-0.2965,0.132,0.1565,-0.289,-0.057,0.1565,0.104,-0.2435,-0.3505,-0.464,0.1345,-0.3745,0.1275
0.023,-0.2745,-0.297,0.1255,0.1605,-0.286,-0.058,0.1535,0.101,-0.248,-0.351,-0.466,0.1355,-0.3805,0.131
0.0145,-0.2785,-0.2925,0.1315,0.154,-0.2855,-0.056,0.154,0.1025,-0.247,-0.35,-0.4645,0.134,-0.3785,0.1295
0.014,-0.2795,-0.293,0.1325,0.1535,-0.2865,-0.0555,0.1575,0.1045,-0.243,-0.3485,-0.4615,0.1365,-0.3735,0.129
0.022,-0.2765,-0.298,0.127,0.1605,-0.2875,-0.0525,0.16,0.105,-0.2415,-0.347,-0.46,0.1385,-0.3755,0.129
0.0195,-0.283,-0.302,0.1315,0.161,-0.2925,-0.0515,0.158,0.1055,-0.241,-0.3485,-0.461,0.1365,-0.379,0.127
0.018,-0.284,-0.301,0.1325,0.16,-0.2925,-0.051,0.1585,0.106,-0.2415,-0.3495,-0.4615,0.135,-0.3805,0.128
0.013,-0.2885,-0.3005,0.1375,0.157,-0.294,-0.051,0.157,0.105,-0.243,-0.349,-0.4625,0.1335,-0.378,0.128
0.018,-0.2835,-0.301,0.1325,0.1595,-0.292,-0.0505,0.1585,0.105,-0.2415,-0.3465,-0.461,0.1355,-0.3785,0.1275
0.017,-0.2865,-0.3025,0.1345,0.16,-0.2945,-0.052,0.1615,0.108,-0.239,-0.3445,-0.4575,0.1385,-0.384,0.128
0.0075,-0.2945,-0.3015,0.143,0.155,-0.298,-0.051,0.159,0.1045,-0.243,-0.3505,-0.4625,0.133,-0.3785,0.128
0.001,-0.297,-0.298,0.148,0.1495,-0.2975,-0.045,0.161,0.1045,-0.243,-0.3515,-0.463,0.1305,-0.3815,0.1285
0.0045,-0.298,-0.3025,0.1465,0.1535,-0.3005,-0.047,0.161,0.1055,-0.242,-0.349,-0.461,0.1345,-0.389,0.131
0.0155,-0.293,-0.308,0.1385,0.162,-0.3005,-0.0505,0.1605,0.107,-0.2405,-0.348,-0.459,0.139,-0.395,0.1325
0.0145,-0.292,-0.306,0.1385,0.1605,-0.299,-0.0515,0.16,0.106,-0.241,-0.3465,-0.4575,0.139,-0.387,0.132
0.0045,-0.2945,-0.2985,0.1445,0.152,-0.2965,-0.049,0.158,0.1015,-0.2455,-0.35,-0.4585,0.136,-0.375,0.1305
0.0,-0.294,-0.2935,0.1465,0.147,-0.2935,-0.049,0.157,0.101,-0.244,-0.35,-0.458,0.1365,-0.3695,0.129
0.013,-0.286,-0.2985,0.136,0.156,-0.292,-0.056,0.154,0.099,-0.244,-0.3485,-0.459,0.14,-0.3765,0.1305
0.017,-0.282,-0.2985,0.132,0.158,-0.29,-0.0555,0.1525,0.0985,-0.2435,-0.348,-0.458,0.141,-0.379,0.1305
0.012,-0.2865,-0.2975,0.137,0.155,-0.292,-0.0555,0.1515,0.0965,-0.245,-0.3505,-0.461,0.1395,-0.3815,0.1325
0.021,-0.2845,-0.3045,0.1315,0.163,-0.2945,-0.059,0.154,0.098,-0.246,-0.35,-0.4605,0.1415,-0.3825,0.133
0.0215,-0.2805,-0.3015,0.1295,0.162,-0.291,-0.0555,0.156,0.1015,-0.241,-0.345,-0.4565,0.141,-0.3745,0.129
0.0145,-0.2805,-0.2945,0.133,0.1545,-0.2875,-0.0545,0.153,0.0965,-0.2445,-0.3495,-0.458,0.14,-0.388,0.133
0.008,-0.285,-0.293,0.138,0.151,-0.289,-0.056,0.154,0.097,-0.2455,-0.351,-0.4585,0.14,-0.3855,0.1335
0.013,-0.289,-0.3015,0.1375,0.1575,-0.295,-0.0545,0.156,0.0995,-0.2425,-0.347,-0.4565,0.1425,-0.376,0.131
0.02,-0.2845,-0.3035,0.132,0.162,-0.294,-0.0545,0.155,0.1015,-0.2415,-0.3455,-0.4535,0.1445,-0.373,0.1295
0.013,-0.2845,-0.297,0.1355,0.155,-0.2905,-0.052,0.157,0.1045,-0.2405,-0.3455,-0.452,0.1435,-0.3765,0.1305
0.0075,-0.2895,-0.2965,0.141,0.152,-0.293,-0.0485,0.154,0.102,-0.244,-0.349,-0.455,0.139,-0.3785,0.1315
0.0075,-0.2915,-0.299,0.142,0.1535,-0.295,-0.052,0.148,0.0955,-0.249,-0.353,-0.461,0.134,-0.3715,0.1285
0.017,-0.287,-0.303,0.1345,0.16,-0.295,-0.053,0.1535,0.0985,-0.245,-0.3505,-0.4585,0.1375,-0.3765,0.1295
0.008,-0.2885,-0.296,0.14,0.1525,-0.2925,-0.05,0.155,0.1025,-0.242,-0.35,-0.458,0.135,-0.3775,0.129
0.0,-0.2955,-0.295,0.1475,0.1475,-0.2955,-0.0505,0.1505,0.0995,-0.2445,-0.354,-0.4605,0.132,-0.377,0.13
0.0105,-0.29,-0.3,0.1395,0.1555,-0.295,-0.051,0.1545,0.102,-0.242,-0.351,-0.4565,0.135,-0.3805,0.1315
0.0165,-0.283,-0.299,0.133,0.158,-0.291,-0.0505,0.1565,0.1025,-0.2395,-0.348,-0.453,0.136,-0.3765,0.1285
0.013,-0.2845,-0.297,0.1355,0.1555,-0.291,-0.05,0.1535,0.0995,-0.2425,-0.348,-0.454,0.136,-0.3735,0.1295
0.007,-0.286,-0.293,0.139,0.15,-0.289,-0.052,0.152,0.099,-0.244,-0.349,-0.456,0.136,-0.379,0.1315
0.0065,-0.286,-0.292,0.1395,0.15,-0.289,-0.05,0.1565,0.1015,-0.2425,-0.348,-0.4535,0.1385,-0.373,0.131
0.009,-0.2835,-0.2915,0.137,0.1505,-0.2875,-0.052,0.157,0.1025,-0.243,-0.346,-0.455,0.1385,-0.37,0.1315
0.018,-0.2775,-0.2945,0.1295,0.1565,-0.286,-0.056,0.1565,0.1045,-0.2405,-0.344,-0.4535,0.1435,-0.3735,0.1305
0.021,-0.273,-0.2935,0.1255,0.1575,-0.283,-0.052,0.156,0.1045,-0.241,-0.3445,-0.4545,0.143,-0.373,0.1305
0.019,-0.274,-0.2925,0.1275,0.156,-0.2835,-0.0525,0.1535,0.1015,-0.2445,-0.3485,-0.4595,0.1415,-0.3725,0.13
0.0155,-0.2765,-0.2915,0.1305,0.154,-0.284,-0.0545,0.153,0.1,-0.246,-0.351,-0.4585,0.142,-0.3705,0.131
0.0145,-0.2785,-0.2925,0.132,0.1535,-0.2855,-0.053,0.1545,0.101,-0.245,-0.3515,-0.461,0.14,-0.376,0.132
0.016,-0.2815,-0.297,0.1325,0.1565,-0.289,-0.052,0.1505,0.0995,-0.245,-0.352,-0.4625,0.142,-0.3775,0.1315
0.023,-0.2765,-0.2995,0.1265,0.1615,-0.288,-0.0525,0.1525,0.1015,-0.2435,-0.349,-0.458,0.1445,-0.3765,0.1305
0.0265,-0.2765,-0.302,0.1245,0.1645,-0.2895,-0.051,0.1635,0.111,-0.2385,-0.3465,-0.458,0.145,-0.377,0.129
0.019,-0.2795,-0.2975,0.13,0.1585,-0.2885,-0.05,0.158,0.105,-0.24,-0.3445,-0.456,0.1435,-0.375,0.131
0.0205,-0.277,-0.297,0.128,0.159,-0.287,-0.05,0.153,0.098,-0.24,-0.34,-0.4505,0.147,-0.371,0.132
0.0155,-0.281,-0.296,0.1325,0.156,-0.2885,-0.0485,0.153,0.0985,-0.244,-0.3425,-0.4545,0.145,-0.376,0.132
0.016,-0.2825,-0.298,0.133,0.157,-0.29,-0.0485,0.1555,0.102,-0.239,-0.34,-0.4525,0.1435,-0.3775,0.1295
0.0205,-0.2835,-0.303,0.131,0.162,-0.293,-0.051,0.1565,0.1045,-0.235,-0.3375,-0.45,0.147,-0.3735,0.13
0.02,-0.2865,-0.306,0.133,0.1635,-0.296,-0.0495,0.1525,0.0995,-0.241,-0.3415,-0.454,0.1435,-0.3755,0.131
0.0185,-0.288,-0.306,0.1345,0.1625,-0.297,-0.049,0.1555,0.104,-0.238,-0.3405,-0.453,0.143,-0.3725,0.129
0.0145,-0.2875,-0.3015,0.1365,0.1585,-0.2945,-0.043,0.1635,0.1085,-0.236,-0.339,-0.4495,0.143,-0.3745,0.1295
0.0155,-0.285,-0.3,0.1345,0.158,-0.2925,-0.0405,0.1605,0.1095,-0.234,-0.3375,-0.449,0.142,-0.3765,0.1275
0.0135,-0.287,-0.3,0.1365,0.157,-0.2935,-0.047,0.1565,0.1085,-0.2345,-0.3395,-0.452,0.144,-0.378,0.1275
0.009,-0.291,-0.3,0.141,0.1545,-0.2955,-0.0425,0.1565,0.105,-0.2395,-0.3455,-0.4555,0.141,-0.3725,0.129
0.008,-0.287,-0.2945,0.1395,0.1515,-0.2905,-0.0415,0.157,0.1065,-0.2385,-0.344,-0.455,0.138,-0.3725,0.1275
0.0125,-0.2845,-0.2965,0.1355,0.155,-0.2905,-0.0465,0.1585,0.1055,-0.2385,-0.3435,-0.4535,0.141,-0.386,0.1285
0.0165,-0.286,-0.3015,0.1345,0.159,-0.2935,-0.048,0.1535,0.101,-0.2435,-0.346,-0.456,0.1425,-0.383,0.131
0.0125,-0.2865,-0.2985,0.1365,0.156,-0.2925,-0.046,0.1565,0.104,-0.2395,-0.3415,-0.452,0.1435,-0.379,0.13
0.011,-0.29,-0.3005,0.1395,0.156,-0.295,-0.045,0.1575,0.104,-0.2385,-0.342,-0.4525,0.145,-0.3805,0.1295
0.0135,-0.286,-0.2985,0.136,0.156,-0.2925,-0.0455,0.157,0.103,-0.2395,-0.343,-0.453,0.143,-0.3775,0.1275
0.007,-0.289,-0.2955,0.1405,0.1515,-0.292,-0.0465,0.155,0.1015,-0.2405,-0.344,-0.454,0.142,-0.3795,0.128
0.0095,-0.293,-0.3025,0.1415,0.1565,-0.2975,-0.0485,0.154,0.1,-0.241,-0.3435,-0.454,0.145,-0.376,0.13
0.02,-0.287,-0.306,0.133,0.1635,-0.2965,-0.0465,0.161,0.105,-0.2375,-0.3405,-0.4495,0.1465,-0.368,0.1295
0.0155,-0.2885,-0.303,0.1365,0.1595,-0.296,-0.043,0.162,0.106,-0.2385,-0.342,-0.453,0.1425,-0.3805,0.1315
0.014,-0.2895,-0.303,0.1375,0.1585,-0.296,-0.0425,0.161,0.1075,-0.2355,-0.3385,-0.451,0.1425,-0.3835,0.129
0.016,-0.291,-0.3065,0.137,0.1615,-0.2985,-0.044,0.1595,0.105,-0.2385,-0.34,-0.453,0.142,-0.3785,0.129
0.018,-0.2915,-0.3085,0.1365,0.1635,-0.3,-0.043,0.161,0.1045,-0.2385,-0.342,-0.4545,0.1405,-0.382,0.1285
0.0165,-0.29,-0.3055,0.1365,0.1615,-0.298,-0.044,0.1615,0.105,-0.2365,-0.3425,-0.451,0.1415,-0.38,0.128
0.005,-0.2945,-0.299,0.1445,0.1525,-0.297,-0.0425,0.157,0.102,-0.2415,-0.346,-0.454,0.1365,-0.3815,0.1315
0.002,-0.2925,-0.294,0.145,0.148,-0.293,-0.0375,0.1615,0.1055,-0.238,-0.3425,-0.4525,0.1365,-0.375,0.1315
0.01,-0.2875,-0.297,0.1385,0.1535,-0.292,-0.0395,0.162,0.105,-0.2355,-0.3405,-0.45,0.14,-0.3815,0.132
0.014,-0.2865,-0.3,0.136,0.157,-0.293,-0.0415,0.1585,0.1015,-0.236,-0.3415,-0.453,0.1385,-0.384,0.132
0.0115,-0.285,-0.2955,0.1365,0.154,-0.29,-0.042,0.1605,0.103,-0.2365,-0.342,-0.45,0.1405,-0.3755,0.1315
0.013,-0.2825,-0.2945,0.1345,0.154,-0.2885,-0.044,0.1575,0.1005,-0.2385,-0.345,-0.452,0.1395,-0.3795,0.1325
0.019,-0.279,-0.2975,0.1295,0.1585,-0.2885,-0.044,0.1565,0.099,-0.2395,-0.3465,-0.4555,0.138,-0.3775,0.1315
0.02,-0.2785,-0.2985,0.129,0.1595,-0.2885,-0.044,0.16,0.1025,-0.237,-0.3445,-0.453,0.14,-0.376,0.1305
0.0175,-0.2785,-0.2955,0.1305,0.1565,-0.287,-0.044,0.157,0.1015,-0.238,-0.3435,-0.453,0.1405,-0.3745,0.132
0.022,-0.275,-0.2965,0.1265,0.1595,-0.286,-0.046,0.158,0.101,-0.2385,-0.342,-0.4515,0.1445,-0.377,0.134
0.0235,-0.2745,-0.2975,0.125,0.1605,-0.286,-0.045,0.158,0.1015,-0.2365,-0.339,-0.4505,0.146,-0.3795,0.1315
0.015,-0.28,-0.294,0.1325,0.1545,-0.287,-0.0445,0.156,0.101,-0.2385,-0.341,-0.45,0.1445,-0.3755,0.1315
0.0085,-0.285,-0.293,0.138,0.151,-0.289,-0.0465,0.159,0.1025,-0.2385,-0.3405,-0.451,0.144,-0.375,0.1315
0.0135,-0.2845,-0.2975,0.135,0.1555,-0.291,-0.0455,0.157,0.103,-0.2365,-0.3385,-0.4485,0.145,-0.3715,0.131
0.01,-0.2895,-0.299,0.1395,0.1545,-0.294,-0.0445,0.156,0.102,-0.2385,-0.3405,-0.4495,0.1435,-0.3715,0.1325
0.012,-0.288,-0.3,0.138,0.156,-0.294,-0.0435,0.1585,0.1055,-0.2345,-0.3365,-0.4465,0.146,-0.3685,0.1315
0.0295,-0.2785,-0.3075,0.1245,0.1685,-0.293,-0.0435,0.162,0.1095,-0.23,-0.3345,-0.4425,0.149,-0.3745,0.131
0.0275,-0.278,-0.3045,0.125,0.1665,-0.291,-0.041,0.1625,0.1065,-0.232,-0.3365,-0.445,0.146,-0.388,0.1295
0.019,-0.2815,-0.3,0.131,0.16,-0.291,-0.042,0.161,0.104,-0.2335,-0.335,-0.442,0.1485,-0.39,0.1305
0.0145,-0.2825,-0.2965,0.1335,0.156,-0.2895,-0.0435,0.1595,0.103,-0.236,-0.337,-0.4445,0.144,-0.3835,0.131
0.014,-0.277,-0.291,0.1315,0.153,-0.284,-0.038,0.162,0.108,-0.231,-0.3325,-0.4415,0.1445,-0.369,0.128
0.0185,-0.277,-0.2945,0.129,0.157,-0.2855,-0.038,0.1635,0.1105,-0.2305,-0.332,-0.441,0.146,-0.3705,0.131
0.018,-0.277,-0.294,0.1295,0.156,-0.2855,-0.0375,0.1625,0.11,-0.232,-0.3335,-0.443,0.1425,-0.3715,0.13
0.016,-0.273,-0.2885,0.128,0.1525,-0.281,-0.0395,0.163,0.1105,-0.2295,-0.3305,-0.4395,0.1445,-0.365,0.1265
0.009,-0.2695,-0.278,0.13,0.144,-0.274,-0.0405,0.1605,0.1095,-0.2315,-0.3355,-0.4435,0.1405,-0.361,0.1255
0.007,-0.2655,-0.272,0.129,0.14,-0.2685,-0.038,0.1595,0.1115,-0.2315,-0.336,-0.443,0.14,-0.3545,0.124
0.018,-0.259,-0.2765,0.12,0.1475,-0.2675,-0.039,0.163,0.1135,-0.229,-0.3335,-0.442,0.1445,-0.3575,0.126
0.0275,-0.2515,-0.2785,0.112,0.153,-0.265,-0.036,0.167,0.117,-0.2225,-0.328,-0.4375,0.1475,-0.3555,0.1255
0.0315,-0.247,-0.2775,0.1075,0.155,-0.2625,-0.035,0.1715,0.1215,-0.22,-0.3245,-0.434,0.149,-0.3475,0.122
0.024,-0.249,-0.2725,0.1125,0.1485,-0.2605,-0.0335,0.1725,0.1225,-0.2215,-0.326,-0.436,0.146,-0.3455,0.119
0.0275,-0.2465,-0.2735,0.1095,0.151,-0.26,-0.037,0.172,0.122,-0.22,-0.323,-0.4345,0.1485,-0.342,0.118
0.0325,-0.239,-0.271,0.103,0.152,-0.255,-0.035,0.172,0.123,-0.2185,-0.321,-0.4325,0.149,-0.335,0.1165
0.021,-0.2405,-0.261,0.1095,0.1415,-0.2505,-0.0315,0.171,0.125,-0.2175,-0.3205,-0.432,0.146,-0.331,0.1135
0.0245,-0.2365,-0.2605,0.1055,0.143,-0.2485,-0.0375,0.174,0.13,-0.214,-0.316,-0.4265,0.15,-0.3325,0.1125
0.0335,-0.2285,-0.2615,0.0975,0.148,-0.245,-0.036,0.1765,0.133,-0.2105,-0.3135,-0.4225,0.1515,-0.329,0.112
0.035,-0.2275,-0.262,0.096,0.1485,-0.2445,-0.035,0.1785,0.1335,-0.2085,-0.3115,-0.4205,0.154,-0.3225,0.1105
0.034,-0.223,-0.2565,0.0945,0.1455,-0.24,-0.033,0.1835,0.138,-0.206,-0.3075,-0.4195,0.1555,-0.321,0.1095
0.038,-0.2165,-0.254,0.089,0.146,-0.235,-0.029,0.188,0.1425,-0.2005,-0.305,-0.415,0.156,-0.3145,0.107
0.04,-0.216,-0.255,0.088,0.1475,-0.2355,-0.03,0.189,0.144,-0.1965,-0.302,-0.411,0.1595,-0.3155,0.106
0.0415,-0.214,-0.255,0.086,0.1485,-0.2345,-0.03,0.191,0.143,-0.1985,-0.302,-0.414,0.158,-0.3215,0.1085
0.046,-0.214,-0.2595,0.0835,0.153,-0.2365,-0.0265,0.193,0.146,-0.1965,-0.3005,-0.411,0.161,-0.3185,0.1065
0.0325,-0.2215,-0.2535,0.094,0.143,-0.2375,-0.0215,0.1915,0.147,-0.195,-0.3,-0.411,0.1585,-0.314,0.1035
0.026,-0.2265,-0.2515,0.1,0.139,-0.239,-0.019,0.193,0.1465,-0.1975,-0.3015,-0.413,0.1545,-0.311,0.103
0.0295,-0.221,-0.2495,0.0955,0.14,-0.2355,-0.0135,0.198,0.15,-0.1945,-0.3,-0.41,0.156,-0.3055,0.1
0.029,-0.212,-0.2405,0.091,0.135,-0.226,-0.0115,0.197,0.15,-0.1965,-0.3,-0.4125,0.1525,-0.305,0.099
0.0285,-0.2085,-0.237,0.0895,0.133,-0.2225,-0.012,0.1945,0.147,-0.1975,-0.304,-0.414,0.149,-0.301,0.098
0.03,-0.2045,-0.234,0.0865,0.1325,-0.2195,-0.0105,0.1975,0.151,-0.1925,-0.309,-0.4115,0.1485,-0.292,0.0945
0.0325,-0.1995,-0.232,0.0835,0.1325,-0.216,-0.0075,0.2,0.156,-0.1905,-0.31,-0.4095,0.1495,-0.2975,0.0935
0.0375,-0.1935,-0.23,0.078,0.134,-0.212,-0.009,0.202,0.1585,-0.1855,-0.3055,-0.405,0.155,-0.293,0.095
0.043,-0.187,-0.2295,0.0715,0.1365,-0.208,-0.0125,0.208,0.163,-0.1815,-0.302,-0.403,0.159,-0.287,0.093
0.038,-0.1905,-0.2275,0.076,0.133,-0.209,-0.015,0.2065,0.1605,-0.1845,-0.3,-0.4045,0.159,-0.2935,0.092
0.0395,-0.1895,-0.228,0.0745,0.134,-0.2085,-0.0105,0.2055,0.159,-0.1835,-0.2975,-0.404,0.1595,-0.289,0.0885
0.0345,-0.1895,-0.2235,0.077,0.1295,-0.2065,-0.0085,0.2095,0.163,-0.179,-0.301,-0.401,0.1575,-0.2805,0.0855
0.027,-0.1925,-0.2195,0.082,0.1235,-0.206,-0.008,0.2095,0.164,-0.178,-0.3055,-0.3995,0.16,-0.2725,0.087
0.035,-0.1835,-0.218,0.074,0.1265,-0.2005,-0.0035,0.2135,0.1695,-0.172,-0.297,-0.3945,0.163,-0.2715,0.0805
0.0285,-0.188,-0.216,0.0795,0.1225,-0.202,-0.0115,0.211,0.1705,-0.171,-0.29,-0.3935,0.164,-0.2765,0.08
0.022,-0.1905,-0.212,0.084,0.117,-0.201,-0.0115,0.212,0.171,-0.1705,-0.2865,-0.395,0.1625,-0.277,0.0795
0.029,-0.1805,-0.209,0.0755,0.1195,-0.195,-0.0135,0.214,0.1745,-0.166,-0.279,-0.388,0.168,-0.272,0.0755
0.026,-0.1865,-0.212,0.08,0.1195,-0.1995,-0.018,0.209,0.1695,-0.1705,-0.2805,-0.3895,0.17,-0.2665,0.0765
0.022,-0.1885,-0.2095,0.083,0.116,-0.199,-0.0225,0.2045,0.166,-0.175,-0.2845,-0.3945,0.164,-0.262,0.0765
0.036,-0.1775,-0.2125,0.0705,0.1245,-0.195,-0.027,0.2005,0.1665,-0.1735,-0.282,-0.391,0.1665,-0.2675,0.08
0.037,-0.1775,-0.214,0.07,0.1255,-0.1955,-0.0385,0.1955,0.163,-0.175,-0.285,-0.3915,0.167,-0.284,0.0835
0.032,-0.18,-0.212,0.0735,0.122,-0.196,-0.05,0.1895,0.1595,-0.1785,-0.286,-0.394,0.1655,-0.286,0.087
0.0335,-0.1825,-0.2155,0.074,0.1245,-0.1985,-0.0465,0.1905,0.16,-0.178,-0.287,-0.3965,0.164,-0.278,0.0895
0.048,-0.1795,-0.2265,0.0655,0.1375,-0.203,-0.059,0.189,0.159,-0.1775,-0.287,-0.3965,0.1705,-0.2765,0.092
0.0625,-0.173,-0.235,0.055,0.149,-0.204,-0.0725,0.1835,0.1585,-0.1755,-0.281,-0.3905,0.1785,-0.2805,0.0965
0.0575,-0.1705,-0.228,0.056,0.143,-0.199,-0.081,0.1845,0.16,-0.1715,-0.2775,-0.387,0.1825,-0.285,0.1005
0.076,-0.167,-0.2425,0.045,0.1595,-0.2045,-0.092,0.1845,0.159,-0.1695,-0.2725,-0.382,0.191,-0.289,0.1075
0.082,-0.1725,-0.2535,0.045,0.168,-0.213,-0.1025,0.1755,0.151,-0.174,-0.2745,-0.383,0.196,-0.2975,0.117
0.067,-0.1815,-0.2475,0.057,0.1575,-0.2145,-0.107,0.1705,0.145,-0.179,-0.279,-0.386,0.1955,-0.3015,0.122
0.076,-0.1815,-0.257,0.0525,0.167,-0.2195,-0.11,0.173,0.1475,-0.176,-0.275,-0.382,0.1995,-0.3065,0.122
0.0855,-0.177,-0.262,0.046,0.174,-0.2195,-0.115,0.176,0.15,-0.172,-0.2705,-0.378,0.2065,-0.31,0.1245
0.0835,-0.181,-0.264,0.0485,0.174,-0.2225,-0.119,0.1725,0.147,-0.1735,-0.272,-0.377,0.2055,-0.3085,0.1255
0.0775,-0.1875,-0.2645,0.0545,0.171,-0.226,-0.1175,0.172,0.149,-0.172,-0.2685,-0.376,0.207,-0.3155,0.1245
0.0825,-0.185,-0.2665,0.051,0.175,-0.226,-0.109,0.1815,0.154,-0.173,-0.2675,-0.3745,0.21,-0.314,0.125
0.0815,-0.189,-0.27,0.0535,0.176,-0.2295,-0.108,0.179,0.153,-0.1715,-0.2675,-0.3765,0.208,-0.316,0.1205
0.081,-0.19,-0.2705,0.054,0.176,-0.2305,-0.11,0.1755,0.1525,-0.169,-0.265,-0.375,0.211,-0.316,0.1185
0.0905,-0.18,-0.27,0.044,0.1805,-0.225,-0.109,0.179,0.154,-0.1685,-0.2655,-0.3725,0.214,-0.3085,0.122
0.0905,-0.179,-0.269,0.044,0.18,-0.224,-0.112,0.1805,0.1555,-0.166,-0.2645,-0.3735,0.2135,-0.318,0.123
0.096,-0.1765,-0.272,0.0395,0.1845,-0.2245,-0.12,0.174,0.1495,-0.1715,-0.267,-0.3745,0.2145,-0.3075,0.1275
0.0925,-0.177,-0.269,0.042,0.181,-0.2225,-0.12,0.167,0.145,-0.1745,-0.268,-0.374,0.2135,-0.3045,0.134
0.102,-0.1715,-0.273,0.0345,0.1875,-0.2225,-0.127,0.165,0.1445,-0.1735,-0.267,-0.372,0.2165,-0.3005,0.136
0.1035,-0.1695,-0.2725,0.0325,0.188,-0.221,-0.1325,0.1615,0.1405,-0.176,-0.268,-0.371,0.219,-0.29,0.14
0.09,-0.1765,-0.266,0.043,0.1785,-0.2215,-0.133,0.1545,0.1335,-0.182,-0.272,-0.374,0.2145,-0.305,0.149
0.093,-0.176,-0.269,0.041,0.1815,-0.2225,-0.1365,0.1475,0.1255,-0.191,-0.281,-0.3805,0.211,-0.2995,0.156
0.0785,-0.191,-0.269,0.056,0.174,-0.2305,-0.129,0.141,0.113,-0.204,-0.2945,-0.395,0.2005,-0.304,0.161
0.072,-0.203,-0.2745,0.065,0.1735,-0.2385,-0.126,0.134,0.102,-0.215,-0.3065,-0.4055,0.194,-0.322,0.1665
0.084,-0.2025,-0.2865,0.059,0.1855,-0.2445,-0.127,0.1345,0.102,-0.2165,-0.3075,-0.407,0.1975,-0.3295,0.17
0.086,-0.203,-0.289,0.058,0.1875,-0.246,-0.1245,0.1375,0.103,-0.2165,-0.307,-0.4065,0.2015,-0.3275,0.1715
0.084,-0.204,-0.2875,0.06,0.1855,-0.246,-0.1205,0.1335,0.0995,-0.2195,-0.3085,-0.406,0.2015,-0.321,0.171
0.0845,-0.2025,-0.2865,0.059,0.1855,-0.2445,-0.1205,0.13,0.097,-0.222,-0.311,-0.4075,0.1975,-0.3245,0.169
0.078,-0.2025,-0.28,0.062,0.179,-0.2415,-0.1195,0.13,0.096,-0.222,-0.3115,-0.4075,0.195,-0.3185,0.17
0.0785,-0.206,-0.284,0.0635,0.1815,-0.245,-0.1205,0.126,0.0905,-0.226,-0.3135,-0.409,0.1965,-0.3185,0.1745
0.089,-0.196,-0.285,0.053,0.187,-0.2405,-0.123,0.1295,0.093,-0.221,-0.309,-0.4035,0.2005,-0.319,0.177
0.088,-0.193,-0.2805,0.052,0.1845,-0.2365,-0.12,0.134,0.0965,-0.2165,-0.3045,-0.4,0.2005,-0.3145,0.1755
0.0895,-0.1985,-0.2875,0.0545,0.189,-0.2435,-0.1195,0.1325,0.099,-0.2155,-0.303,-0.3995,0.205,-0.309,0.176
0.1015,-0.199,-0.3,0.0485,0.201,-0.2495,-0.119,0.1385,0.104,-0.21,-0.298,-0.3925,0.214,-0.3115,0.1775
0.1,-0.2035,-0.303,0.0515,0.2015,-0.253,-0.1195,0.139,0.1045,-0.211,-0.299,-0.392,0.2155,-0.3295,0.179
0.099,-0.2085,-0.307,0.0545,0.2035,-0.258,-0.1215,0.137,0.1,-0.2125,-0.301,-0.393,0.219,-0.339,0.183
0.111,-0.2085,-0.319,0.0485,0.215,-0.2635,-0.129,0.13,0.0925,-0.22,-0.309,-0.4,0.2185,-0.3375,0.1945
0.118,-0.2055,-0.323,0.0435,0.2205,-0.264,-0.1265,0.131,0.0945,-0.222,-0.309,-0.401,0.216,-0.333,0.1975
0.116,-0.208,-0.324,0.0455,0.2205,-0.266,-0.125,0.1365,0.097,-0.218,-0.305,-0.3965,0.2205,-0.3335,0.195
0.1175,-0.205,-0.322,0.0435,0.22,-0.2635,-0.1395,0.1255,0.0905,-0.219,-0.3045,-0.3935,0.225,-0.334,0.2005
0.1145,-0.202,-0.316,0.0435,0.216,-0.2595,-0.14,0.1245,0.09,-0.2185,-0.3035,-0.391,0.2235,-0.3235,0.197
0.114,-0.1975,-0.3115,0.0415,0.213,-0.255,-0.132,0.131,0.0955,-0.2125,-0.2995,-0.3875,0.2225,-0.312,0.1875
0.12,-0.1925,-0.312,0.036,0.2165,-0.2525,-0.131,0.1305,0.0965,-0.21,-0.297,-0.386,0.2235,-0.308,0.1835
0.1145,-0.196,-0.3105,0.0405,0.213,-0.2535,-0.1305,0.1335,0.1015,-0.2125,-0.3005,-0.39,0.221,-0.3165,0.179
0.122,-0.192,-0.314,0.035,0.218,-0.253,-0.133,0.128,0.095,-0.213,-0.298,-0.3865,0.2215,-0.3215,0.1785
0.124,-0.1885,-0.3115,0.032,0.218,-0.25,-0.1345,0.122,0.0885,-0.2145,-0.296,-0.3845,0.2215,-0.308,0.1815
0.1155,-0.1895,-0.3045,0.037,0.2105,-0.247,-0.1325,0.124,0.093,-0.2155,-0.2975,-0.385,0.2195,-0.309,0.1805
0.117,-0.1965,-0.313,0.0395,0.215,-0.2545,-0.135,0.1165,0.0825,-0.226,-0.308,-0.3935,0.214,-0.319,0.1805
0.123,-0.2005,-0.3235,0.0385,0.2235,-0.262,-0.1375,0.1155,0.0775,-0.232,-0.3135,-0.4015,0.211,-0.323,0.1835
0.121,-0.204,-0.324,0.0415,0.223,-0.264,-0.138,0.1145,0.075,-0.2335,-0.3165,-0.403,0.2115,-0.323,0.187
0.116,-0.212,-0.3275,0.048,0.222,-0.2695,-0.1375,0.113,0.072,-0.2365,-0.322,-0.4085,0.2075,-0.3185,0.1865
0.121,-0.2165,-0.337,0.0475,0.229,-0.2765,-0.1365,0.108,0.0675,-0.243,-0.327,-0.414,0.204,-0.3295,0.1895
0.114,-0.2185,-0.3325,0.052,0.2235,-0.2755,-0.1335,0.1055,0.063,-0.247,-0.331,-0.4165,0.1995,-0.3345,0.1935
0.11,-0.2175,-0.327,0.0535,0.219,-0.272,-0.1285,0.113,0.068,-0.243,-0.325,-0.413,0.1975,-0.333,0.1895
0.113,-0.212,-0.3245,0.049,0.219,-0.2685,-0.129,0.109,0.0655,-0.244,-0.3265,-0.4135,0.1985,-0.3305,0.1865
0.114,-0.207,-0.3205,0.0465,0.2175,-0.264,-0.1285,0.113,0.068,-0.2415,-0.3265,-0.411,0.201,-0.3225,0.1825
0.11,-0.2095,-0.319,0.0495,0.2145,-0.264,-0.125,0.1165,0.0695,-0.2415,-0.3275,-0.4105,0.198,-0.327,0.182
0.1005,-0.216,-0.316,0.0575,0.2085,-0.266,-0.118,0.1125,0.068,-0.245,-0.33,-0.4145,0.191,-0.3205,0.18
0.0955,-0.2195,-0.315,0.0615,0.2055,-0.267,-0.113,0.1175,0.0725,-0.2415,-0.3265,-0.4135,0.1895,-0.317,0.1745
0.0875,-0.2235,-0.3105,0.068,0.1995,-0.267,-0.107,0.1205,0.072,-0.2395,-0.326,-0.411,0.1895,-0.3285,0.174
0.073,-0.2315,-0.304,0.079,0.1885,-0.268,-0.0985,0.123,0.0755,-0.239,-0.3255,-0.4115,0.1855,-0.3335,0.1685
0.0555,-0.2365,-0.292,0.0905,0.174,-0.2645,-0.0875,0.1315,0.0855,-0.2305,-0.319,-0.41,0.183,-0.3245,0.1575
0.0385,-0.24,-0.278,0.1005,0.1585,-0.259,-0.075,0.137,0.093,-0.223,-0.3135,-0.4085,0.179,-0.3215,0.1505
0.035,-0.2455,-0.2805,0.105,0.158,-0.263,-0.0725,0.139,0.0935,-0.2265,-0.3195,-0.4145,0.173,-0.3355,0.1495
0.028,-0.252,-0.2795,0.1115,0.154,-0.266,-0.065,0.139,0.091,-0.229,-0.323,-0.419,0.167,-0.3415,0.1485
0.0225,-0.254,-0.276,0.1155,0.1495,-0.265,-0.0625,0.1395,0.091,-0.2325,-0.3255,-0.4215,0.1645,-0.348,0.15
0.0235,-0.2575,-0.2805,0.117,0.1525,-0.269,-0.063,0.141,0.0915,-0.2355,-0.3295,-0.427,0.161,-0.358,0.149
0.018,-0.261,-0.2785,0.121,0.1485,-0.2695,-0.0605,0.1365,0.086,-0.239,-0.3335,-0.43,0.155,-0.358,0.1485
0.017,-0.2625,-0.279,0.1225,0.148,-0.2705,-0.0595,0.1355,0.084,-0.2415,-0.338,-0.433,0.1545,-0.3585,0.15
0.0075,-0.272,-0.279,0.132,0.1435,-0.2755,-0.055,0.1355,0.084,-0.2435,-0.34,-0.4365,0.151,-0.3535,0.146
0.0065,-0.2765,-0.2825,0.135,0.1445,-0.2795,-0.0545,0.136,0.0835,-0.2435,-0.3385,-0.4345,0.1515,-0.3565,0.144
0.019,-0.2755,-0.294,0.128,0.1565,-0.2845,-0.0545,0.142,0.086,-0.24,-0.3355,-0.432,0.1555,-0.366,0.1435
0.016,-0.2815,-0.297,0.1325,0.1565,-0.2895,-0.0535,0.1415,0.0875,-0.2405,-0.3355,-0.4315,0.1565,-0.3665,0.143
