i,ii,iii,avr,avl,avf,v1,v2,v3,v4,v5,v6,vx,vy,vz
-0.027,-0.7785,-0.7515,0.403,0.3625,-0.765,-0.262,0.079,-0.1095,-0.03,0.105,0.1155,0.2045,-0.321,-0.0385
-0.0195,-0.7865,-0.767,0.403,0.374,-0.777,-0.265,0.0735,-0.1115,-0.03,0.1075,0.121,0.211,-0.3305,-0.0345
0.001,-0.7685,-0.769,0.384,0.385,-0.769,-0.274,0.067,-0.118,-0.037,0.1005,0.11,0.207,-0.324,-0.0375
-0.0035,-0.764,-0.7605,0.384,0.3785,-0.7625,-0.2785,0.0655,-0.119,-0.038,0.092,0.101,0.202,-0.317,-0.04
-0.0135,-0.759,-0.7455,0.3865,0.366,-0.7525,-0.278,0.067,-0.117,-0.0375,0.0935,0.1005,0.1985,-0.307,-0.044
-0.0085,-0.7425,-0.734,0.3755,0.363,-0.7385,-0.2735,0.069,-0.113,-0.035,0.095,0.1035,0.196,-0.297,-0.044
-0.0175,-0.748,-0.7305,0.383,0.3565,-0.7395,-0.2705,0.073,-0.109,-0.0355,0.095,0.1,0.196,-0.304,-0.0375
-0.031,-0.764,-0.733,0.3975,0.351,-0.7485,-0.2645,0.072,-0.113,-0.04,0.0875,0.091,0.1855,-0.3115,-0.0425
-0.0155,-0.77,-0.7545,0.393,0.3695,-0.762,-0.2735,0.0695,-0.1165,-0.04,0.093,0.0955,0.1875,-0.3145,-0.0475
-0.0055,-0.7665,-0.761,0.386,0.378,-0.764,-0.266,0.074,-0.1155,-0.039,0.0955,0.093,0.1855,-0.3165,-0.051
0.0075,-0.76,-0.7675,0.3765,0.3875,-0.764,-0.263,0.0715,-0.1175,-0.044,0.0825,0.084,0.177,-0.315,-0.0515
0.0065,-0.7565,-0.7635,0.375,0.385,-0.7605,-0.2725,0.067,-0.1215,-0.048,0.079,0.0815,0.178,-0.3105,-0.0465
-0.013,-0.753,-0.74,0.3835,0.3635,-0.7465,-0.2685,0.062,-0.127,-0.0505,0.0755,0.0755,0.1745,-0.3,-0.0455
-0.009,-0.7475,-0.7385,0.378,0.3645,-0.743,-0.263,0.0645,-0.1245,-0.046,0.08,0.0805,0.178,-0.2985,-0.0435
-0.005,-0.743,-0.738,0.374,0.3665,-0.7405,-0.255,0.075,-0.1125,-0.0335,0.0935,0.094,0.1875,-0.305,-0.0435
-0.0075,-0.742,-0.734,0.3745,0.363,-0.738,-0.264,0.0695,-0.111,-0.0285,0.1005,0.102,0.194,-0.3065,-0.045
-0.0125,-0.7335,-0.721,0.373,0.354,-0.7275,-0.266,0.06,-0.122,-0.036,0.0905,0.0915,0.1935,-0.289,-0.0425
-0.0135,-0.7205,-0.707,0.3675,0.3465,-0.714,-0.2635,0.0625,-0.125,-0.0355,0.0905,0.094,0.1975,-0.2815,-0.0395
-0.012,-0.721,-0.709,0.3665,0.3485,-0.7155,-0.266,0.0685,-0.1195,-0.027,0.1015,0.112,0.2055,-0.288,-0.0435
0.001,-0.733,-0.734,0.3665,0.3675,-0.734,-0.261,0.0685,-0.118,-0.022,0.105,0.1155,0.2105,-0.2975,-0.041
0.013,-0.7295,-0.7425,0.3585,0.378,-0.736,-0.2525,0.0785,-0.108,-0.0115,0.1165,0.1235,0.211,-0.3025,-0.0425
0.004,-0.719,-0.723,0.3575,0.3635,-0.721,-0.2445,0.088,-0.0975,-0.0075,0.12,0.13,0.2065,-0.295,-0.0475
-0.012,-0.7275,-0.7155,0.37,0.3515,-0.722,-0.2555,0.0775,-0.1045,-0.0175,0.112,0.123,0.2035,-0.2995,-0.0475
-0.0125,-0.73,-0.718,0.3715,0.3525,-0.724,-0.27,0.066,-0.1175,-0.029,0.103,0.1115,0.2035,-0.302,-0.048
0.0025,-0.73,-0.7325,0.364,0.367,-0.7315,-0.2625,0.0675,-0.116,-0.0305,0.102,0.1095,0.2065,-0.306,-0.046
0.0135,-0.7335,-0.7465,0.3605,0.38,-0.7405,-0.2585,0.073,-0.111,-0.027,0.106,0.1135,0.2095,-0.3035,-0.0455
0.01,-0.7305,-0.741,0.3605,0.3755,-0.736,-0.2615,0.075,-0.1115,-0.028,0.105,0.112,0.2065,-0.3055,-0.048
-0.013,-0.7405,-0.7275,0.377,0.3575,-0.734,-0.266,0.0745,-0.112,-0.0275,0.1025,0.109,0.2025,-0.314,-0.049
-0.02,-0.7495,-0.7295,0.385,0.355,-0.74,-0.271,0.0755,-0.112,-0.028,0.101,0.108,0.2055,-0.305,-0.049
-0.0155,-0.755,-0.74,0.3855,0.362,-0.748,-0.2645,0.083,-0.1075,-0.0335,0.0965,0.1035,0.206,-0.2935,-0.045
-0.017,-0.7605,-0.744,0.389,0.3635,-0.7525,-0.264,0.0845,-0.1055,-0.0385,0.0895,0.0965,0.203,-0.2905,-0.0415
-0.003,-0.746,-0.743,0.3745,0.37,-0.7445,-0.262,0.091,-0.0965,-0.0325,0.0925,0.0985,0.2025,-0.3045,-0.0495
0.0085,-0.738,-0.746,0.365,0.377,-0.742,-0.2505,0.101,-0.091,-0.027,0.0945,0.098,0.1995,-0.3085,-0.0475
0.008,-0.754,-0.7615,0.3735,0.3845,-0.758,-0.2495,0.097,-0.104,-0.045,0.076,0.0805,0.189,-0.3125,-0.0435
-0.0105,-0.777,-0.766,0.394,0.378,-0.772,-0.2475,0.104,-0.105,-0.054,0.0615,0.0665,0.1805,-0.328,-0.041
-0.0305,-0.7875,-0.757,0.4095,0.363,-0.7725,-0.239,0.1145,-0.1,-0.05,0.0595,0.063,0.176,-0.329,-0.044
-0.0325,-0.785,-0.7525,0.409,0.36,-0.769,-0.228,0.1265,-0.0935,-0.0525,0.05,0.0575,0.169,-0.328,-0.0515
-0.0375,-0.7875,-0.75,0.413,0.356,-0.769,-0.203,0.163,-0.067,-0.0425,0.0445,0.051,0.1605,-0.3395,-0.054
-0.0435,-0.796,-0.7525,0.42,0.3545,-0.7745,-0.1745,0.2035,-0.0345,-0.027,0.042,0.0455,0.153,-0.3535,-0.0635
-0.024,-0.8065,-0.783,0.4155,0.3795,-0.795,-0.1575,0.2385,-0.009,-0.022,0.032,0.035,0.147,-0.376,-0.0685
-0.0355,-0.839,-0.804,0.4375,0.384,-0.822,-0.145,0.2725,0.014,-0.0245,0.007,0.0065,0.1335,-0.3935,-0.073
-0.056,-0.8755,-0.8195,0.466,0.382,-0.848,-0.1275,0.3085,0.037,-0.026,-0.019,-0.0185,0.122,-0.4035,-0.081
-0.045,-0.8945,-0.8495,0.47,0.402,-0.872,-0.096,0.357,0.067,-0.032,-0.045,-0.038,0.1095,-0.436,-0.0885
-0.071,-0.919,-0.8475,0.4955,0.3885,-0.8835,-0.0605,0.409,0.101,-0.0355,-0.073,-0.067,0.084,-0.4615,-0.1
-0.079,-0.9415,-0.8625,0.5105,0.392,-0.9025,-0.031,0.461,0.14,-0.0335,-0.0955,-0.0935,0.065,-0.484,-0.107
-0.0755,-0.952,-0.8765,0.514,0.4005,-0.9145,0.0035,0.513,0.1835,-0.034,-0.1165,-0.113,0.0515,-0.4985,-0.1145
-0.081,-0.9625,-0.8815,0.522,0.4,-0.922,0.0285,0.547,0.2085,-0.039,-0.1375,-0.1355,0.0365,-0.5095,-0.1215
-0.078,-0.969,-0.891,0.524,0.4065,-0.9305,0.041,0.586,0.2435,-0.02,-0.145,-0.151,0.0265,-0.5295,-0.1385
-0.111,-0.9855,-0.8745,0.5485,0.382,-0.9305,0.057,0.624,0.281,0.0,-0.1465,-0.1595,0.017,-0.5235,-0.155
-0.1325,-0.9905,-0.858,0.5615,0.363,-0.9245,0.0755,0.655,0.3065,0.0045,-0.1665,-0.1855,0.007,-0.5135,-0.1645
-0.1395,-0.983,-0.8435,0.5615,0.352,-0.9135,0.1025,0.713,0.356,0.028,-0.179,-0.206,-0.0065,-0.5335,-0.1905
-0.142,-0.9885,-0.8465,0.5655,0.3525,-0.9175,0.1375,0.7765,0.4115,0.0635,-0.172,-0.2075,-0.012,-0.545,-0.2185
-0.1285,-0.991,-0.863,0.56,0.3675,-0.9275,0.161,0.8175,0.443,0.08,-0.178,-0.219,-0.016,-0.535,-0.2335
-0.132,-0.9985,-0.866,0.5655,0.367,-0.9325,0.1795,0.846,0.46,0.0795,-0.1965,-0.238,-0.0335,-0.5345,-0.2475
-0.141,-0.999,-0.858,0.5705,0.3585,-0.929,0.2045,0.872,0.4775,0.0885,-0.2055,-0.2465,-0.05,-0.531,-0.2675
-0.17,-0.991,-0.8205,0.581,0.325,-0.906,0.22,0.889,0.477,0.0735,-0.234,-0.275,-0.074,-0.517,-0.29
-0.195,-0.9685,-0.774,0.582,0.2895,-0.8715,0.232,0.909,0.479,0.0605,-0.259,-0.301,-0.0935,-0.5085,-0.3065
-0.1865,-0.956,-0.769,0.5715,0.291,-0.863,0.268,0.9525,0.499,0.057,-0.2815,-0.3215,-0.1185,-0.5125,-0.3275
-0.1855,-0.9725,-0.787,0.5795,0.3005,-0.88,0.3025,1.012,0.5365,0.0605,-0.309,-0.3475,-0.1415,-0.5255,-0.3545
-0.184,-0.984,-0.7995,0.584,0.308,-0.892,0.3295,1.058,0.569,0.0805,-0.3075,-0.3505,-0.139,-0.524,-0.377
-0.187,-0.9695,-0.7825,0.5785,0.2975,-0.876,0.348,1.0915,0.5875,0.091,-0.3045,-0.353,-0.1405,-0.5085,-0.3985
-0.179,-0.9455,-0.767,0.5625,0.294,-0.8565,0.345,1.1185,0.6165,0.118,-0.2865,-0.341,-0.127,-0.509,-0.418
-0.1555,-0.9385,-0.783,0.547,0.314,-0.861,0.3495,1.156,0.655,0.1555,-0.257,-0.3215,-0.1055,-0.508,-0.4275
-0.148,-0.9305,-0.7825,0.5395,0.3175,-0.8565,0.3565,1.178,0.679,0.1765,-0.243,-0.3165,-0.093,-0.488,-0.439
-0.111,-0.9105,-0.799,0.511,0.344,-0.855,0.369,1.2085,0.7115,0.2025,-0.2285,-0.313,-0.084,-0.483,-0.466
-0.075,-0.908,-0.8325,0.4915,0.379,-0.8705,0.394,1.277,0.774,0.244,-0.206,-0.3035,-0.071,-0.4935,-0.4885
-0.0645,-0.918,-0.853,0.4915,0.3945,-0.886,0.4105,1.319,0.811,0.2745,-0.185,-0.2885,-0.0465,-0.5045,-0.513
-0.0515,-0.929,-0.8775,0.4905,0.413,-0.9035,0.424,1.345,0.834,0.2945,-0.1755,-0.289,-0.0325,-0.5035,-0.5335
-0.017,-0.919,-0.902,0.468,0.443,-0.9105,0.432,1.357,0.8465,0.3155,-0.158,-0.281,-0.015,-0.499,-0.5415
0.0285,-0.9015,-0.93,0.4365,0.479,-0.916,0.4295,1.3605,0.858,0.343,-0.1295,-0.255,0.0115,-0.518,-0.554
0.042,-0.899,-0.9405,0.4285,0.491,-0.92,0.4415,1.3685,0.8685,0.362,-0.1115,-0.24,0.029,-0.519,-0.563
0.0745,-0.893,-0.967,0.4095,0.521,-0.9305,0.4325,1.3685,0.866,0.3625,-0.108,-0.233,0.0515,-0.515,-0.562
0.081,-0.882,-0.9635,0.401,0.5225,-0.923,0.3935,1.34,0.8635,0.3835,-0.0725,-0.197,0.089,-0.51,-0.556
0.1095,-0.851,-0.96,0.371,0.535,-0.906,0.347,1.282,0.8605,0.4455,0.015,-0.123,0.152,-0.4895,-0.546
0.219,-0.834,-1.0535,0.3075,0.6365,-0.944,0.289,1.254,0.894,0.5265,0.09,-0.0705,0.2205,-0.491,-0.542
0.2915,-0.8125,-1.104,0.2605,0.698,-0.9585,0.2545,1.2525,0.976,0.661,0.203,0.001,0.303,-0.481,-0.562
0.3135,-0.7825,-1.0965,0.2345,0.7055,-0.94,0.2205,1.2405,1.041,0.789,0.322,0.0835,0.3785,-0.466,-0.5825
0.3615,-0.7715,-1.1335,0.205,0.748,-0.9525,0.172,1.219,1.0905,0.903,0.443,0.1705,0.473,-0.465,-0.574
0.4455,-0.746,-1.192,0.15,0.819,-0.969,0.101,1.1685,1.1245,1.0305,0.593,0.2815,0.594,-0.4675,-0.548
0.54,-0.7205,-1.261,0.09,0.901,-0.991,0.0335,1.1185,1.153,1.148,0.731,0.385,0.707,-0.4585,-0.536
0.6475,-0.664,-1.312,0.008,0.98,-0.988,-0.061,1.054,1.202,1.314,0.9215,0.5235,0.846,-0.426,-0.5275
0.724,-0.5885,-1.313,-0.0675,1.0185,-0.951,-0.1995,0.926,1.211,1.4695,1.1225,0.6735,0.9805,-0.3755,-0.505
0.8025,-0.5095,-1.312,-0.1465,1.0575,-0.911,-0.317,0.791,1.225,1.641,1.346,0.8495,1.1345,-0.307,-0.4795
0.879,-0.4195,-1.299,-0.2295,1.089,-0.8595,-0.4585,0.6405,1.225,1.804,1.5635,1.0275,1.2855,-0.251,-0.4385
0.9315,-0.337,-1.269,-0.297,1.1005,-0.8035,-0.62,0.4555,1.1975,1.9415,1.7675,1.196,1.427,-0.1765,-0.403
0.99,-0.2465,-1.2365,-0.371,1.1135,-0.742,-0.773,0.236,1.1615,2.0795,1.9725,1.367,1.5635,-0.0855,-0.3705
1.0255,-0.18,-1.206,-0.422,1.116,-0.693,-0.9145,0.011,1.0955,2.1685,2.1235,1.4975,1.6655,-0.0245,-0.329
1.04,-0.117,-1.1575,-0.461,1.099,-0.6375,-1.037,-0.1925,1.0305,2.238,2.2525,1.6115,1.7455,0.048,-0.2935
1.0575,-0.0405,-1.098,-0.508,1.078,-0.5695,-1.155,-0.381,0.957,2.2805,2.345,1.7,1.7965,0.1185,-0.268
1.082,0.0535,-1.029,-0.5675,1.0555,-0.4875,-1.2725,-0.578,0.859,2.294,2.429,1.7955,1.848,0.2175,-0.2465
1.0785,0.1475,-0.9315,-0.6125,1.0055,-0.392,-1.387,-0.8295,0.6825,2.225,2.467,1.8715,1.8675,0.3155,-0.1925
1.0315,0.219,-0.8125,-0.6245,0.922,-0.297,-1.4875,-1.1045,0.429,2.0545,2.4205,1.8925,1.834,0.3955,-0.1165
0.9585,0.3035,-0.6555,-0.6305,0.8075,-0.176,-1.571,-1.3895,0.1115,1.802,2.3205,1.89,1.7615,0.512,-0.0385
0.9095,0.3915,-0.5185,-0.65,0.714,-0.0635,-1.612,-1.6265,-0.1895,1.553,2.205,1.8715,1.6775,0.596,0.0245
0.8555,0.4725,-0.383,-0.664,0.6195,0.045,-1.673,-1.8435,-0.4345,1.395,2.15,1.882,1.6325,0.678,0.07
0.784,0.567,-0.217,-0.675,0.501,0.175,-1.742,-2.053,-0.687,1.217,2.0925,1.894,1.582,0.793,0.13
0.758,0.6465,-0.1115,-0.702,0.435,0.267,-1.7745,-2.2065,-0.9205,1.0185,1.995,1.8755,1.516,0.872,0.189
0.739,0.6805,-0.0585,-0.7095,0.3995,0.3105,-1.8265,-2.414,-1.268,0.7085,1.8465,1.8295,1.437,0.91,0.278
0.6065,0.705,0.0985,-0.6555,0.2545,0.4015,-1.8615,-2.7095,-1.8865,0.049,1.519,1.697,1.239,0.963,0.4325
0.447,0.7545,0.3065,-0.6005,0.07,0.53,-1.8965,-3.0015,-2.5305,-0.6795,1.146,1.556,1.012,1.0365,0.586
0.3735,0.826,0.452,-0.5995,-0.039,0.6385,-1.9555,-3.212,-2.993,-1.225,0.8625,1.456,0.8455,1.1255,0.695
0.321,0.895,0.5735,-0.6075,-0.126,0.734,-1.9965,-3.3255,-3.3135,-1.6675,0.62,1.373,0.705,1.202,0.7695
0.2715,0.982,0.7105,-0.6265,-0.219,0.846,-2.0325,-3.406,-3.585,-2.13,0.372,1.3,0.5775,1.289,0.8495
0.254,1.0795,0.825,-0.6665,-0.285,0.952,-2.1065,-3.499,-3.822,-2.5105,0.1735,1.2445,0.493,1.373,0.9355
0.2705,1.1295,0.8585,-0.7,-0.2935,0.994,-2.1675,-3.5665,-3.9515,-2.6685,0.1175,1.257,0.488,1.409,0.992
0.285,1.1415,0.8555,-0.713,-0.285,0.998,-2.198,-3.594,-4.038,-2.786,0.0825,1.277,0.4925,1.4325,1.045
0.306,1.1535,0.8475,-0.7295,-0.2705,1.0,-2.248,-3.6025,-4.0465,-2.8035,0.097,1.322,0.5325,1.45,1.0845
0.332,1.1685,0.836,-0.75,-0.2515,1.002,-2.2895,-3.6005,-4.0095,-2.763,0.1335,1.368,0.5715,1.4695,1.1115
0.329,1.181,0.8515,-0.755,-0.2605,1.016,-2.302,-3.565,-3.9575,-2.7375,0.129,1.37,0.57,1.4795,1.1165
0.2735,1.2135,0.9395,-0.7435,-0.3325,1.0765,-2.2765,-3.483,-3.8545,-2.683,0.118,1.362,0.5375,1.5285,1.0675
0.2275,1.2065,0.9785,-0.717,-0.375,1.0925,-2.2575,-3.4125,-3.7715,-2.6525,0.0815,1.3325,0.4985,1.5445,1.041
0.212,1.166,0.9535,-0.6885,-0.3705,1.0595,-2.2365,-3.338,-3.683,-2.609,0.046,1.287,0.471,1.521,1.0255
0.19,1.1545,0.964,-0.672,-0.3865,1.059,-2.1765,-3.2265,-3.565,-2.55,0.0135,1.242,0.426,1.531,0.984
0.128,1.097,0.969,-0.612,-0.4205,1.0325,-2.094,-3.085,-3.424,-2.481,-0.0335,1.1815,0.3775,1.5005,0.9465
0.081,1.0405,0.9595,-0.56,-0.439,0.9995,-2.0235,-2.9545,-3.294,-2.425,-0.0905,1.1225,0.336,1.4775,0.941
0.077,0.992,0.915,-0.534,-0.4185,0.953,-1.9615,-2.828,-3.165,-2.3675,-0.1465,1.058,0.2975,1.4475,0.941
0.0595,0.8765,0.8165,-0.4675,-0.3785,0.846,-1.8735,-2.6685,-2.9975,-2.262,-0.169,0.998,0.2805,1.352,0.9095
0.075,0.759,0.684,-0.4165,-0.3045,0.721,-1.797,-2.5105,-2.816,-2.127,-0.16,0.961,0.2895,1.2405,0.887
0.082,0.63,0.548,-0.356,-0.2325,0.589,-1.7385,-2.3685,-2.6535,-2.0145,-0.171,0.905,0.2845,1.131,0.8765
0.0645,0.507,0.4425,-0.2855,-0.189,0.475,-1.6675,-2.2285,-2.504,-1.9155,-0.1885,0.8475,0.2695,1.029,0.866
0.0475,0.426,0.3785,-0.2365,-0.1655,0.402,-1.6015,-2.11,-2.3795,-1.8375,-0.2255,0.772,0.235,0.9515,0.858
0.0265,0.342,0.3155,-0.184,-0.1445,0.3285,-1.5375,-1.9945,-2.262,-1.761,-0.248,0.711,0.21,0.884,0.8335
0.015,0.262,0.2465,-0.138,-0.1155,0.254,-1.4595,-1.864,-2.135,-1.681,-0.2735,0.6415,0.182,0.8055,0.8075
0.011,0.203,0.1915,-0.107,-0.0895,0.197,-1.4055,-1.7765,-2.048,-1.629,-0.3085,0.567,0.1475,0.743,0.7975
0.0205,0.144,0.124,-0.082,-0.0515,0.1335,-1.354,-1.702,-1.9665,-1.572,-0.3205,0.5225,0.1345,0.696,0.787
0.0215,0.071,0.0495,-0.046,-0.014,0.06,-1.3005,-1.613,-1.8735,-1.5065,-0.3245,0.4795,0.1265,0.638,0.782
0.004,0.0015,-0.0025,-0.0025,0.0035,-0.001,-1.258,-1.53,-1.7885,-1.443,-0.3225,0.438,0.1135,0.569,0.7755
-0.0015,-0.074,-0.073,0.038,0.0355,-0.0735,-1.209,-1.4505,-1.7125,-1.3925,-0.3345,0.3905,0.1005,0.4965,0.7745
0.013,-0.1435,-0.157,0.0655,0.085,-0.1505,-1.16,-1.383,-1.6455,-1.345,-0.3295,0.3685,0.1075,0.4385,0.7735
0.029,-0.207,-0.236,0.0895,0.1325,-0.222,-1.1235,-1.317,-1.5765,-1.291,-0.32,0.345,0.116,0.3865,0.7615
0.0255,-0.2705,-0.296,0.1225,0.161,-0.2835,-1.079,-1.233,-1.492,-1.2245,-0.307,0.3195,0.121,0.3265,0.7395
0.0025,-0.304,-0.3065,0.151,0.1545,-0.3055,-1.023,-1.1465,-1.4045,-1.158,-0.3055,0.2845,0.099,0.28,0.7085
-0.0185,-0.3245,-0.306,0.172,0.144,-0.3155,-0.9835,-1.0935,-1.3535,-1.1245,-0.329,0.235,0.064,0.2665,0.6855
-0.0525,-0.3685,-0.316,0.2105,0.132,-0.3425,-0.9505,-1.0575,-1.319,-1.1055,-0.3565,0.181,0.029,0.237,0.6665
-0.0715,-0.4185,-0.347,0.2455,0.138,-0.383,-0.9275,-1.0075,-1.2695,-1.074,-0.374,0.1315,0.0075,0.201,0.6505
-0.071,-0.427,-0.356,0.249,0.143,-0.3915,-0.9015,-0.9585,-1.22,-1.0365,-0.3705,0.1095,0.0015,0.1845,0.6245
-0.09,-0.4415,-0.3515,0.266,0.1305,-0.3965,-0.865,-0.909,-1.1715,-1.0,-0.368,0.089,-0.016,0.151,0.5935
-0.0925,-0.4625,-0.37,0.2775,0.1385,-0.4165,-0.838,-0.863,-1.124,-0.9625,-0.3595,0.08,-0.019,0.1295,0.5735
-0.089,-0.4715,-0.3825,0.2805,0.147,-0.4275,-0.8125,-0.8265,-1.085,-0.9325,-0.359,0.0625,-0.0245,0.1195,0.5505
-0.0975,-0.4925,-0.395,0.295,0.149,-0.444,-0.7855,-0.7765,-1.036,-0.9,-0.37,0.0275,-0.0385,0.0965,0.5205
-0.102,-0.5085,-0.4065,0.3055,0.152,-0.4575,-0.7495,-0.7105,-0.968,-0.85,-0.3685,-0.004,-0.048,0.064,0.488
-0.101,-0.52,-0.419,0.311,0.159,-0.4695,-0.712,-0.6485,-0.9015,-0.7955,-0.3545,-0.0205,-0.0565,0.05,0.4535
-0.0885,-0.5255,-0.437,0.3075,0.1745,-0.4815,-0.683,-0.5995,-0.853,-0.7575,-0.339,-0.0235,-0.0585,0.0455,0.4225
-0.0885,-0.5365,-0.448,0.3125,0.18,-0.4925,-0.6575,-0.555,-0.812,-0.725,-0.3305,-0.036,-0.0575,0.0245,0.3955
-0.0985,-0.5405,-0.442,0.32,0.1715,-0.4915,-0.629,-0.501,-0.7585,-0.682,-0.3145,-0.0455,-0.0525,-0.0045,0.366
-0.132,-0.5745,-0.4425,0.3535,0.1555,-0.509,-0.5965,-0.4515,-0.712,-0.6505,-0.311,-0.064,-0.052,-0.0425,0.337
-0.1545,-0.6175,-0.463,0.386,0.1545,-0.5405,-0.558,-0.4065,-0.6665,-0.616,-0.3055,-0.0785,-0.05,-0.0595,0.309
-0.1375,-0.638,-0.5005,0.388,0.181,-0.5695,-0.532,-0.3695,-0.628,-0.581,-0.2885,-0.075,-0.0435,-0.0765,0.288
-0.113,-0.6585,-0.5455,0.386,0.216,-0.6025,-0.5225,-0.338,-0.601,-0.5575,-0.2795,-0.0805,-0.037,-0.1105,0.2675
-0.109,-0.679,-0.57,0.3945,0.2305,-0.625,-0.4925,-0.293,-0.5595,-0.5245,-0.2655,-0.0875,-0.035,-0.1465,0.2335
-0.1185,-0.714,-0.5955,0.4165,0.2385,-0.655,-0.4425,-0.24,-0.5085,-0.477,-0.247,-0.093,-0.0345,-0.1835,0.1975
-0.129,-0.7505,-0.621,0.44,0.246,-0.686,-0.4145,-0.1925,-0.4595,-0.433,-0.2255,-0.096,-0.026,-0.212,0.1715
-0.1415,-0.7785,-0.637,0.4605,0.2475,-0.708,-0.398,-0.1545,-0.4255,-0.403,-0.2065,-0.097,-0.0145,-0.241,0.1495
-0.124,-0.7795,-0.655,0.452,0.2655,-0.7175,-0.373,-0.1195,-0.392,-0.371,-0.1905,-0.0915,-0.003,-0.262,0.1255
-0.119,-0.782,-0.663,0.4505,0.272,-0.7225,-0.353,-0.0865,-0.3545,-0.334,-0.1655,-0.0775,0.0095,-0.28,0.105
-0.1395,-0.8,-0.66,0.47,0.26,-0.7305,-0.332,-0.0585,-0.325,-0.3075,-0.1495,-0.069,0.018,-0.2945,0.0855
-0.1385,-0.8145,-0.676,0.477,0.2685,-0.7455,-0.319,-0.045,-0.31,-0.295,-0.1455,-0.0715,0.0245,-0.29,0.0715
-0.1205,-0.8115,-0.691,0.4665,0.285,-0.7515,-0.3085,-0.029,-0.29,-0.276,-0.1375,-0.071,0.0335,-0.307,0.061
-0.1255,-0.814,-0.689,0.47,0.282,-0.7515,-0.3065,-0.0105,-0.267,-0.2595,-0.134,-0.0725,0.038,-0.3275,0.0485
-0.1435,-0.8465,-0.7025,0.4955,0.2795,-0.7745,-0.3105,-0.014,-0.2625,-0.26,-0.1415,-0.085,0.038,-0.3265,0.0435
-0.1685,-0.865,-0.697,0.517,0.264,-0.781,-0.308,-0.0125,-0.257,-0.255,-0.142,-0.0845,0.042,-0.3365,0.0425
-0.1805,-0.8545,-0.674,0.518,0.2465,-0.7645,-0.2925,0.0085,-0.238,-0.234,-0.123,-0.067,0.0465,-0.34,0.0385
-0.1675,-0.83,-0.662,0.499,0.247,-0.746,-0.296,0.0165,-0.231,-0.2285,-0.1155,-0.0585,0.0525,-0.3205,0.032
-0.133,-0.81,-0.677,0.472,0.272,-0.744,-0.296,0.023,-0.2265,-0.2285,-0.113,-0.055,0.0595,-0.3225,0.023
-0.086,-0.796,-0.71,0.441,0.312,-0.7535,-0.269,0.041,-0.2095,-0.2115,-0.0985,-0.0485,0.0635,-0.332,0.013
-0.0865,-0.7975,-0.7105,0.4425,0.312,-0.754,-0.2805,0.047,-0.2015,-0.2035,-0.0965,-0.051,0.067,-0.327,0.0095
-0.1075,-0.806,-0.6985,0.457,0.2955,-0.7525,-0.288,0.0505,-0.1975,-0.201,-0.095,-0.053,0.0645,-0.3315,0.0035
-0.1115,-0.8145,-0.703,0.463,0.296,-0.759,-0.2695,0.064,-0.186,-0.191,-0.085,-0.0485,0.067,-0.349,0.0015
-0.114,-0.836,-0.7215,0.4755,0.304,-0.779,-0.259,0.068,-0.1815,-0.1885,-0.0885,-0.0545,0.0655,-0.3635,0.001
-0.1315,-0.848,-0.7165,0.49,0.293,-0.7825,-0.2705,0.065,-0.186,-0.1965,-0.0935,-0.062,0.0585,-0.3685,-0.006
-0.134,-0.8395,-0.7055,0.487,0.2855,-0.7725,-0.2765,0.0715,-0.1805,-0.1955,-0.09,-0.0595,0.0615,-0.3705,-0.006
-0.1165,-0.8415,-0.7245,0.479,0.304,-0.783,-0.262,0.072,-0.1825,-0.197,-0.089,-0.057,0.067,-0.3695,-0.002
-0.1085,-0.8415,-0.733,0.475,0.3125,-0.7875,-0.259,0.075,-0.1795,-0.197,-0.0915,-0.059,0.068,-0.364,-0.002
-0.1125,-0.8395,-0.727,0.476,0.307,-0.7835,-0.269,0.075,-0.181,-0.2015,-0.106,-0.0745,0.06,-0.348,0.001
-0.12,-0.8555,-0.7355,0.488,0.3075,-0.796,-0.2765,0.0655,-0.1935,-0.204,-0.1125,-0.086,0.0605,-0.347,0.0055
-0.126,-0.859,-0.733,0.4925,0.3035,-0.796,-0.2655,0.078,-0.182,-0.1925,-0.1045,-0.0765,0.063,-0.363,-0.0005
-0.1325,-0.8635,-0.731,0.498,0.299,-0.7975,-0.249,0.097,-0.17,-0.185,-0.0945,-0.059,0.063,-0.3785,-0.004
-0.1215,-0.8605,-0.739,0.4915,0.3085,-0.8,-0.2465,0.0995,-0.168,-0.1815,-0.093,-0.0545,0.065,-0.3755,-0.007
-0.114,-0.859,-0.745,0.4865,0.3155,-0.802,-0.253,0.0935,-0.173,-0.187,-0.101,-0.06,0.0665,-0.3795,-0.0095
-0.1195,-0.875,-0.755,0.4975,0.3175,-0.8155,-0.2505,0.0925,-0.1725,-0.186,-0.0985,-0.0585,0.0725,-0.387,-0.0045
-0.1175,-0.8795,-0.7615,0.4985,0.322,-0.821,-0.2495,0.094,-0.1685,-0.182,-0.0965,-0.0575,0.072,-0.381,-0.008
-0.1225,-0.8885,-0.766,0.506,0.322,-0.8275,-0.254,0.0925,-0.1705,-0.182,-0.0965,-0.059,0.0755,-0.389,-0.0115
-0.144,-0.9055,-0.7615,0.525,0.309,-0.834,-0.255,0.0935,-0.171,-0.1825,-0.0985,-0.0595,0.0795,-0.397,-0.009
-0.1495,-0.9065,-0.7575,0.528,0.304,-0.832,-0.254,0.096,-0.1725,-0.181,-0.097,-0.057,0.0735,-0.3975,-0.0115
-0.132,-0.892,-0.7605,0.5125,0.314,-0.8265,-0.25,0.1005,-0.166,-0.169,-0.0835,-0.049,0.077,-0.398,-0.015
-0.1005,-0.8725,-0.772,0.4865,0.336,-0.8225,-0.2385,0.112,-0.1545,-0.1605,-0.077,-0.0425,0.079,-0.4075,-0.0145
-0.1075,-0.879,-0.7715,0.4935,0.332,-0.8255,-0.2365,0.109,-0.1565,-0.1675,-0.0865,-0.0555,0.0705,-0.404,-0.0175
-0.149,-0.904,-0.755,0.5265,0.303,-0.83,-0.247,0.1005,-0.165,-0.177,-0.0995,-0.0675,0.0675,-0.3975,-0.0115
-0.1275,-0.8975,-0.7695,0.5125,0.321,-0.8335,-0.245,0.106,-0.1605,-0.175,-0.098,-0.065,0.071,-0.396,-0.004
-0.1195,-0.8935,-0.774,0.5065,0.327,-0.834,-0.244,0.101,-0.1665,-0.1815,-0.105,-0.0745,0.067,-0.3955,-0.007
-0.116,-0.895,-0.779,0.5055,0.3315,-0.837,-0.2535,0.0885,-0.1815,-0.2,-0.12,-0.0905,0.0545,-0.401,-0.012
-0.103,-0.892,-0.789,0.4975,0.343,-0.841,-0.2515,0.0935,-0.1785,-0.202,-0.121,-0.096,0.051,-0.4,-0.011
-0.1255,-0.902,-0.7765,0.514,0.3255,-0.8395,-0.2385,0.103,-0.171,-0.195,-0.1145,-0.092,0.047,-0.403,-0.008
-0.125,-0.898,-0.7725,0.512,0.324,-0.8355,-0.236,0.1055,-0.168,-0.192,-0.1135,-0.096,0.041,-0.404,-0.0095
-0.131,-0.889,-0.7585,0.5105,0.3135,-0.824,-0.2345,0.107,-0.1635,-0.1865,-0.115,-0.1015,0.0395,-0.407,-0.0055
-0.134,-0.8805,-0.7465,0.5075,0.306,-0.814,-0.2255,0.114,-0.155,-0.181,-0.1105,-0.097,0.038,-0.41,-0.0045
-0.103,-0.866,-0.763,0.4845,0.33,-0.8145,-0.2275,0.117,-0.153,-0.1805,-0.113,-0.0985,0.0385,-0.4105,-0.01
-0.105,-0.8705,-0.7655,0.488,0.33,-0.818,-0.229,0.1135,-0.1565,-0.1805,-0.1135,-0.0985,0.04,-0.4135,-0.0115
-0.143,-0.888,-0.7445,0.516,0.3005,-0.8165,-0.2305,0.114,-0.1595,-0.186,-0.1215,-0.1045,0.0355,-0.404,-0.0085
-0.118,-0.8755,-0.757,0.497,0.3195,-0.8165,-0.2335,0.1055,-0.1635,-0.19,-0.132,-0.113,0.0335,-0.4,-0.0075
-0.0905,-0.8535,-0.7635,0.472,0.3365,-0.809,-0.227,0.108,-0.1605,-0.186,-0.1275,-0.104,0.0385,-0.394,-0.0105
-0.1045,-0.8595,-0.755,0.4825,0.325,-0.8075,-0.225,0.114,-0.159,-0.1865,-0.13,-0.1015,0.039,-0.3945,-0.0125
-0.135,-0.8785,-0.7435,0.507,0.3045,-0.811,-0.2225,0.1095,-0.162,-0.1895,-0.136,-0.11,0.0325,-0.404,-0.011
-0.157,-0.8985,-0.7415,0.528,0.2925,-0.82,-0.231,0.1055,-0.167,-0.1955,-0.145,-0.121,0.0255,-0.407,-0.005
-0.1415,-0.896,-0.7545,0.519,0.3065,-0.8255,-0.24,0.098,-0.169,-0.196,-0.148,-0.1225,0.026,-0.4165,-0.006
-0.116,-0.8965,-0.78,0.5065,0.332,-0.8385,-0.234,0.0995,-0.169,-0.1975,-0.148,-0.1205,0.0285,-0.431,-0.0005
-0.103,-0.8915,-0.789,0.4975,0.343,-0.8405,-0.2435,0.092,-0.1755,-0.211,-0.162,-0.133,0.0275,-0.428,0.0025
-0.1265,-0.876,-0.7495,0.5015,0.3115,-0.813,-0.235,0.0945,-0.172,-0.208,-0.1605,-0.135,0.03,-0.41,-0.008
-0.1425,-0.8865,-0.744,0.515,0.3005,-0.8155,-0.2295,0.1005,-0.165,-0.2015,-0.1555,-0.131,0.0305,-0.405,-0.0075
-0.1425,-0.8985,-0.756,0.5205,0.3065,-0.8275,-0.2375,0.098,-0.169,-0.2125,-0.1655,-0.1385,0.0245,-0.41,-0.005
-0.134,-0.908,-0.774,0.521,0.32,-0.841,-0.2275,0.1065,-0.168,-0.2135,-0.1655,-0.134,0.0225,-0.421,-0.0045
-0.1315,-0.92,-0.789,0.526,0.3285,-0.8545,-0.22,0.1055,-0.1665,-0.2115,-0.164,-0.1305,0.0225,-0.4265,-0.0045
-0.1375,-0.9205,-0.7835,0.529,0.323,-0.8525,-0.2195,0.1105,-0.1645,-0.2105,-0.1635,-0.1335,0.0225,-0.4245,-0.002
-0.1425,-0.9135,-0.771,0.5285,0.314,-0.8425,-0.224,0.1175,-0.1625,-0.209,-0.161,-0.1295,0.0215,-0.4255,-0.003
-0.163,-0.9315,-0.7685,0.5475,0.303,-0.85,-0.223,0.114,-0.166,-0.22,-0.17,-0.137,0.017,-0.4305,-0.003
-0.172,-0.9505,-0.7785,0.5615,0.303,-0.8645,-0.229,0.1065,-0.1735,-0.2315,-0.1815,-0.15,0.0115,-0.432,-0.0025
-0.178,-0.946,-0.768,0.562,0.295,-0.857,-0.23,0.108,-0.1735,-0.2285,-0.181,-0.1505,0.0095,-0.4205,-0.004
-0.1705,-0.9325,-0.762,0.552,0.296,-0.8475,-0.223,0.117,-0.165,-0.2185,-0.17,-0.1395,0.0165,-0.4195,-0.003
-0.1505,-0.9175,-0.767,0.5345,0.308,-0.8425,-0.2165,0.116,-0.169,-0.2195,-0.1695,-0.1415,0.016,-0.4265,-0.002
-0.1545,-0.9215,-0.767,0.538,0.306,-0.8445,-0.2175,0.1205,-0.1665,-0.2165,-0.174,-0.1495,0.0105,-0.4235,-0.002
-0.1525,-0.9275,-0.775,0.5405,0.311,-0.8515,-0.2165,0.123,-0.1645,-0.2155,-0.1765,-0.1505,0.0085,-0.428,-0.0005
-0.1415,-0.9255,-0.784,0.534,0.321,-0.855,-0.214,0.1165,-0.175,-0.221,-0.184,-0.1585,0.001,-0.428,0.007
-0.1485,-0.9295,-0.7815,0.5395,0.3165,-0.856,-0.2195,0.1145,-0.1725,-0.2155,-0.1805,-0.1575,0.002,-0.428,0.0015
-0.1575,-0.927,-0.77,0.5425,0.306,-0.8485,-0.216,0.1235,-0.1655,-0.21,-0.172,-0.1485,0.0055,-0.443,-0.0015
-0.1655,-0.929,-0.764,0.5475,0.299,-0.8465,-0.2105,0.125,-0.1645,-0.2155,-0.1765,-0.1495,0.003,-0.4485,0.0035
-0.171,-0.9355,-0.7645,0.5535,0.2965,-0.85,-0.209,0.121,-0.168,-0.2255,-0.1815,-0.1505,0.0005,-0.444,0.0045
-0.1625,-0.932,-0.7695,0.5475,0.3035,-0.851,-0.212,0.12,-0.173,-0.232,-0.185,-0.1545,-0.005,-0.4485,0.0075
-0.16,-0.94,-0.78,0.5505,0.3095,-0.86,-0.212,0.1125,-0.179,-0.24,-0.19,-0.1615,-0.0055,-0.452,0.005
-0.1695,-0.947,-0.777,0.5585,0.304,-0.862,-0.215,0.112,-0.18,-0.2445,-0.1895,-0.1615,-0.004,-0.4455,0.0045
-0.18,-0.9435,-0.7635,0.562,0.292,-0.8535,-0.2105,0.1195,-0.1755,-0.244,-0.189,-0.1655,-0.008,-0.4395,0.0095
-0.186,-0.943,-0.757,0.565,0.2855,-0.85,-0.2095,0.1205,-0.1785,-0.249,-0.191,-0.167,-0.0065,-0.4305,0.0085
-0.158,-0.942,-0.7835,0.55,0.3125,-0.863,-0.2155,0.115,-0.183,-0.252,-0.1805,-0.158,0.0055,-0.442,0.012
-0.134,-0.9415,-0.8075,0.538,0.337,-0.875,-0.2155,0.1105,-0.1905,-0.2615,-0.1905,-0.172,-0.0025,-0.4545,0.0155
-0.137,-0.9445,-0.8075,0.541,0.3355,-0.8765,-0.2225,0.1085,-0.1955,-0.2695,-0.2075,-0.1845,-0.014,-0.448,0.011
-0.1515,-0.9535,-0.8015,0.5525,0.325,-0.8775,-0.2125,0.11,-0.193,-0.262,-0.2005,-0.1775,-0.0095,-0.452,0.014
-0.1665,-0.957,-0.7905,0.5625,0.312,-0.874,-0.2105,0.1105,-0.1905,-0.258,-0.201,-0.1815,-0.012,-0.4565,0.012
-0.1645,-0.9545,-0.79,0.5595,0.313,-0.8725,-0.2055,0.116,-0.184,-0.2485,-0.193,-0.174,-0.0075,-0.4545,0.006
-0.1635,-0.9565,-0.793,0.56,0.315,-0.875,-0.2015,0.1185,-0.1815,-0.2425,-0.1895,-0.1705,-0.003,-0.463,0.0125
-0.156,-0.9565,-0.8005,0.5565,0.3225,-0.879,-0.2125,0.116,-0.182,-0.2445,-0.201,-0.1795,-0.0085,-0.4765,0.012
-0.174,-0.9645,-0.7905,0.5695,0.308,-0.878,-0.2015,0.1185,-0.183,-0.2425,-0.1995,-0.176,-0.013,-0.4675,0.0065
-0.2085,-0.9725,-0.764,0.5905,0.2775,-0.868,-0.187,0.127,-0.177,-0.2385,-0.1955,-0.175,-0.017,-0.465,0.0115
-0.206,-0.9705,-0.7645,0.5885,0.279,-0.8675,-0.199,0.1275,-0.175,-0.241,-0.2055,-0.188,-0.023,-0.471,0.0095
-0.1885,-0.9785,-0.7895,0.584,0.3005,-0.8845,-0.2075,0.115,-0.187,-0.2535,-0.2185,-0.2,-0.0225,-0.469,0.007
-0.188,-0.984,-0.7955,0.5865,0.3035,-0.89,-0.198,0.112,-0.19,-0.261,-0.226,-0.207,-0.028,-0.4715,0.0075
-0.195,-0.9755,-0.781,0.5855,0.293,-0.8785,-0.2105,0.1045,-0.196,-0.2715,-0.2425,-0.2235,-0.0415,-0.4615,0.006
-0.192,-0.9685,-0.776,0.5805,0.292,-0.8725,-0.206,0.1035,-0.1975,-0.276,-0.249,-0.226,-0.042,-0.4585,0.009
-0.1985,-0.962,-0.7635,0.5805,0.2825,-0.863,-0.2005,0.107,-0.1955,-0.274,-0.246,-0.221,-0.044,-0.457,0.0035
-0.206,-0.9645,-0.759,0.5855,0.2765,-0.862,-0.1955,0.106,-0.1965,-0.2785,-0.25,-0.2215,-0.046,-0.4535,0.003
-0.1865,-0.9595,-0.773,0.5735,0.293,-0.8665,-0.188,0.1135,-0.1915,-0.2795,-0.2495,-0.2145,-0.041,-0.468,0.013
-0.1715,-0.957,-0.7855,0.564,0.307,-0.8715,-0.1955,0.1085,-0.199,-0.291,-0.2555,-0.221,-0.044,-0.467,0.018
-0.186,-0.9775,-0.7915,0.582,0.303,-0.885,-0.1985,0.0985,-0.21,-0.304,-0.2655,-0.2315,-0.0515,-0.4665,0.017
-0.213,-0.9925,-0.78,0.603,0.2835,-0.8865,-0.2005,0.1015,-0.2105,-0.305,-0.2675,-0.2345,-0.055,-0.464,0.013
-0.221,-1.0,-0.779,0.6105,0.279,-0.89,-0.193,0.1025,-0.213,-0.3065,-0.2695,-0.2395,-0.0585,-0.467,0.016
-0.2035,-0.9845,-0.781,0.5945,0.289,-0.883,-0.19,0.1055,-0.2135,-0.3065,-0.269,-0.241,-0.066,-0.47,0.0205
-0.2005,-0.98,-0.7795,0.59,0.2895,-0.88,-0.178,0.111,-0.209,-0.3035,-0.268,-0.238,-0.0655,-0.4635,0.0155
-0.2015,-0.9895,-0.788,0.596,0.2935,-0.8895,-0.1745,0.1055,-0.2195,-0.311,-0.276,-0.243,-0.0655,-0.475,0.017
-0.2075,-0.9845,-0.777,0.596,0.285,-0.881,-0.189,0.106,-0.225,-0.314,-0.2795,-0.2475,-0.074,-0.467,0.018
-0.2155,-0.983,-0.767,0.5995,0.276,-0.875,-0.188,0.109,-0.219,-0.3085,-0.278,-0.246,-0.0755,-0.4705,0.0145
-0.2225,-0.984,-0.761,0.6035,0.269,-0.8725,-0.179,0.1125,-0.22,-0.31,-0.2815,-0.253,-0.082,-0.475,0.015
-0.2265,-0.9955,-0.769,0.6115,0.271,-0.8825,-0.1805,0.117,-0.2155,-0.3035,-0.277,-0.251,-0.082,-0.473,0.0155
-0.215,-0.999,-0.7845,0.607,0.285,-0.892,-0.185,0.106,-0.22,-0.3045,-0.2795,-0.2525,-0.0795,-0.478,0.018
-0.2225,-0.9935,-0.771,0.608,0.2745,-0.8825,-0.1915,0.0935,-0.233,-0.3175,-0.29,-0.2595,-0.086,-0.469,0.0125
-0.223,-1.004,-0.781,0.614,0.279,-0.893,-0.188,0.089,-0.236,-0.326,-0.2975,-0.2645,-0.0845,-0.4825,0.014
-0.2205,-1.0115,-0.791,0.616,0.285,-0.9015,-0.186,0.0985,-0.2225,-0.3145,-0.2855,-0.2545,-0.079,-0.4885,0.0145
-0.2365,-1.0195,-0.783,0.6285,0.273,-0.9015,-0.1905,0.1045,-0.2115,-0.3045,-0.2765,-0.249,-0.0775,-0.4885,0.0155
-0.226,-1.0215,-0.7955,0.624,0.2845,-0.9085,-0.184,0.099,-0.22,-0.317,-0.2905,-0.261,-0.0865,-0.495,0.0235
-0.213,-1.0085,-0.7955,0.6105,0.2915,-0.902,-0.1775,0.107,-0.2165,-0.313,-0.285,-0.252,-0.084,-0.4895,0.0175
-0.2315,-1.004,-0.7725,0.618,0.2705,-0.8885,-0.1735,0.1095,-0.2155,-0.314,-0.285,-0.2555,-0.087,-0.4825,0.016
-0.2395,-0.987,-0.748,0.6135,0.254,-0.8675,-0.1705,0.106,-0.223,-0.3205,-0.2895,-0.2625,-0.0955,-0.4755,0.019
-0.203,-0.976,-0.7725,0.59,0.2845,-0.8745,-0.179,0.0955,-0.2355,-0.3335,-0.2995,-0.2695,-0.0915,-0.475,0.024
-0.1905,-1.001,-0.8105,0.596,0.31,-0.906,-0.1915,0.086,-0.2475,-0.3515,-0.315,-0.283,-0.091,-0.472,0.0265
-0.202,-1.0165,-0.8145,0.6095,0.3065,-0.9155,-0.187,0.09,-0.2425,-0.347,-0.3105,-0.2765,-0.0895,-0.482,0.028
-0.2025,-1.009,-0.8065,0.606,0.302,-0.908,-0.172,0.097,-0.238,-0.3445,-0.3065,-0.267,-0.0875,-0.4985,0.0345
-0.2025,-1.0065,-0.8045,0.605,0.301,-0.9055,-0.1725,0.0985,-0.238,-0.349,-0.3095,-0.268,-0.0895,-0.5005,0.036
-0.2085,-1.013,-0.8045,0.611,0.298,-0.909,-0.1695,0.0975,-0.24,-0.3535,-0.314,-0.275,-0.097,-0.5035,0.0365
-0.2185,-1.021,-0.8025,0.62,0.292,-0.912,-0.1675,0.0955,-0.2435,-0.3575,-0.32,-0.278,-0.0975,-0.504,0.041
-0.1965,-0.9965,-0.8,0.597,0.3015,-0.8985,-0.167,0.0985,-0.2395,-0.352,-0.319,-0.277,-0.101,-0.5025,0.0435
-0.2085,-0.99,-0.782,0.5995,0.2865,-0.8865,-0.149,0.105,-0.24,-0.351,-0.317,-0.2795,-0.1095,-0.503,0.0405
-0.261,-1.035,-0.7735,0.648,0.2565,-0.9045,-0.1615,0.09,-0.253,-0.362,-0.329,-0.292,-0.105,-0.5125,0.042
-0.2695,-1.0505,-0.781,0.6605,0.2555,-0.916,-0.169,0.087,-0.254,-0.3605,-0.3305,-0.2925,-0.106,-0.5125,0.0425
-0.241,-1.034,-0.793,0.6375,0.276,-0.9135,-0.157,0.0995,-0.241,-0.349,-0.322,-0.287,-0.1115,-0.515,0.0375
-0.2345,-1.024,-0.7895,0.6295,0.2775,-0.907,-0.149,0.105,-0.237,-0.3465,-0.322,-0.288,-0.1175,-0.5265,0.0335
-0.2395,-1.028,-0.789,0.634,0.2745,-0.909,-0.1495,0.1035,-0.2455,-0.3555,-0.3255,-0.2895,-0.1215,-0.5235,0.0315
-0.225,-1.026,-0.801,0.6255,0.288,-0.914,-0.1525,0.1015,-0.249,-0.3585,-0.327,-0.291,-0.121,-0.5155,0.035
-0.2385,-1.031,-0.7925,0.635,0.277,-0.912,-0.144,0.105,-0.249,-0.359,-0.3335,-0.294,-0.1285,-0.505,0.037
-0.2535,-1.0305,-0.777,0.6425,0.262,-0.904,-0.138,0.115,-0.2395,-0.351,-0.3285,-0.289,-0.129,-0.5095,0.0375
-0.26,-1.0225,-0.763,0.6415,0.2515,-0.893,-0.1305,0.1175,-0.2385,-0.35,-0.3245,-0.287,-0.129,-0.5155,0.038
-0.269,-1.034,-0.765,0.652,0.248,-0.8995,-0.1445,0.097,-0.261,-0.3735,-0.3465,-0.3085,-0.1375,-0.519,0.037
-0.2425,-1.028,-0.7855,0.6355,0.2715,-0.907,-0.1555,0.081,-0.2775,-0.392,-0.3625,-0.323,-0.143,-0.517,0.035
-0.2295,-1.0235,-0.794,0.627,0.282,-0.9095,-0.152,0.0745,-0.285,-0.4025,-0.364,-0.3225,-0.143,-0.5135,0.0375
-0.2425,-1.0205,-0.778,0.632,0.268,-0.8995,-0.1605,0.0765,-0.2835,-0.4035,-0.3655,-0.325,-0.1475,-0.5,0.0375
-0.2315,-1.0155,-0.7835,0.6235,0.276,-0.8995,-0.156,0.0785,-0.2835,-0.407,-0.368,-0.327,-0.148,-0.4995,0.037
-0.2265,-1.0235,-0.7965,0.625,0.285,-0.9105,-0.15,0.081,-0.283,-0.41,-0.3685,-0.3315,-0.15,-0.517,0.0355
-0.2365,-1.028,-0.7915,0.6325,0.2775,-0.91,-0.145,0.0865,-0.2795,-0.4055,-0.364,-0.3265,-0.156,-0.5165,0.036
-0.2465,-1.04,-0.7935,0.6435,0.274,-0.917,-0.146,0.0845,-0.2845,-0.4065,-0.3605,-0.321,-0.1495,-0.523,0.043
-0.258,-1.0465,-0.7885,0.652,0.2655,-0.9175,-0.1555,0.0755,-0.2925,-0.412,-0.3655,-0.3265,-0.15,-0.523,0.043
-0.256,-1.0445,-0.788,0.6505,0.266,-0.9165,-0.145,0.074,-0.2955,-0.4145,-0.371,-0.3285,-0.153,-0.5175,0.0405
-0.2545,-1.0545,-0.8,0.655,0.2725,-0.9275,-0.1485,0.071,-0.3,-0.413,-0.371,-0.33,-0.1505,-0.5215,0.042
-0.251,-1.057,-0.806,0.6545,0.2775,-0.932,-0.1575,0.0685,-0.2985,-0.41,-0.3735,-0.334,-0.151,-0.5225,0.041
-0.2575,-1.056,-0.7985,0.657,0.2705,-0.9275,-0.15,0.076,-0.293,-0.406,-0.375,-0.3385,-0.1575,-0.52,0.0395
-0.251,-1.052,-0.8015,0.652,0.275,-0.927,-0.145,0.075,-0.2955,-0.403,-0.3715,-0.3325,-0.155,-0.524,0.042
-0.233,-1.0455,-0.812,0.6395,0.2895,-0.929,-0.14,0.077,-0.2955,-0.4035,-0.3715,-0.3295,-0.151,-0.5245,0.045
-0.235,-1.0485,-0.8135,0.642,0.2895,-0.9315,-0.136,0.0775,-0.2965,-0.4055,-0.375,-0.3345,-0.155,-0.5275,0.042
-0.242,-1.0555,-0.813,0.649,0.2855,-0.9345,-0.1425,0.07,-0.303,-0.4115,-0.381,-0.3395,-0.1565,-0.5375,0.04
-0.2615,-1.058,-0.796,0.66,0.267,-0.927,-0.15,0.0665,-0.307,-0.4165,-0.3885,-0.3445,-0.1605,-0.536,0.0455
-0.271,-1.042,-0.771,0.657,0.25,-0.9065,-0.1445,0.0715,-0.301,-0.412,-0.3845,-0.338,-0.156,-0.5265,0.0445
-0.263,-1.0385,-0.7755,0.651,0.256,-0.907,-0.1445,0.069,-0.3065,-0.422,-0.3925,-0.3455,-0.157,-0.5225,0.044
-0.254,-1.0465,-0.7925,0.6505,0.2695,-0.9195,-0.1415,0.07,-0.3075,-0.425,-0.396,-0.3495,-0.16,-0.531,0.0455
-0.2435,-1.0575,-0.814,0.651,0.2855,-0.936,-0.141,0.0725,-0.3075,-0.4275,-0.3935,-0.345,-0.1575,-0.54,0.045
-0.2345,-1.063,-0.828,0.649,0.297,-0.946,-0.1455,0.0665,-0.314,-0.4355,-0.397,-0.348,-0.157,-0.538,0.047
-0.2555,-1.0595,-0.8035,0.658,0.274,-0.932,-0.134,0.0765,-0.306,-0.427,-0.3895,-0.337,-0.1595,-0.5245,0.042
-0.272,-1.063,-0.791,0.6675,0.2595,-0.9275,-0.1245,0.0755,-0.3075,-0.431,-0.397,-0.342,-0.1685,-0.5265,0.046
-0.2535,-1.062,-0.8085,0.658,0.2775,-0.9355,-0.1355,0.069,-0.3125,-0.4345,-0.4005,-0.347,-0.167,-0.5445,0.056
-0.254,-1.066,-0.812,0.66,0.279,-0.9395,-0.1415,0.0635,-0.3165,-0.4385,-0.4065,-0.3525,-0.1765,-0.542,0.0545
-0.249,-1.062,-0.8135,0.6555,0.282,-0.938,-0.1285,0.0575,-0.3205,-0.445,-0.415,-0.3635,-0.1855,-0.531,0.053
-0.254,-1.047,-0.793,0.6505,0.2695,-0.92,-0.1325,0.055,-0.324,-0.449,-0.416,-0.3665,-0.1915,-0.5225,0.045
-0.267,-1.029,-0.7625,0.6485,0.2475,-0.896,-0.1405,0.0505,-0.3275,-0.4535,-0.424,-0.3765,-0.1955,-0.5105,0.046
-0.259,-1.0305,-0.772,0.645,0.2565,-0.9015,-0.136,0.05,-0.3245,-0.448,-0.4205,-0.373,-0.187,-0.5095,0.0475
-0.2625,-1.0335,-0.771,0.6485,0.2545,-0.9025,-0.141,0.047,-0.328,-0.449,-0.4205,-0.373,-0.19,-0.5135,0.0455
-0.2655,-1.0375,-0.772,0.6515,0.253,-0.905,-0.141,0.0505,-0.328,-0.447,-0.421,-0.3765,-0.1865,-0.517,0.053
-0.2645,-1.052,-0.7875,0.6585,0.2615,-0.92,-0.1335,0.0545,-0.322,-0.4405,-0.413,-0.3675,-0.1815,-0.5325,0.0545
-0.2635,-1.067,-0.8035,0.6655,0.2695,-0.935,-0.1325,0.059,-0.3165,-0.437,-0.4095,-0.3625,-0.1795,-0.5415,0.0535
-0.266,-1.0855,-0.8195,0.676,0.277,-0.953,-0.128,0.071,-0.309,-0.4295,-0.4035,-0.354,-0.1785,-0.546,0.0535
-0.2775,-1.0845,-0.807,0.681,0.265,-0.946,-0.1145,0.075,-0.3105,-0.4305,-0.4015,-0.3485,-0.177,-0.5495,0.0555
-0.2845,-1.074,-0.7895,0.6795,0.2525,-0.932,-0.12,0.0705,-0.3115,-0.43,-0.4,-0.3515,-0.1755,-0.5405,0.055
-0.2905,-1.0685,-0.778,0.68,0.2435,-0.9235,-0.1225,0.072,-0.3095,-0.4285,-0.3975,-0.352,-0.1785,-0.5365,0.0545
-0.2755,-1.0695,-0.794,0.6725,0.2595,-0.932,-0.124,0.0665,-0.3185,-0.446,-0.4075,-0.3575,-0.1765,-0.533,0.057
-0.2505,-1.0785,-0.8285,0.6645,0.289,-0.9535,-0.126,0.0585,-0.321,-0.452,-0.4135,-0.3585,-0.1735,-0.543,0.06
-0.2425,-1.088,-0.8455,0.6655,0.3015,-0.967,-0.122,0.0615,-0.3185,-0.45,-0.41,-0.352,-0.1685,-0.5565,0.064
-0.251,-1.089,-0.838,0.67,0.2935,-0.9635,-0.126,0.063,-0.317,-0.448,-0.4075,-0.3495,-0.1695,-0.55,0.061
-0.256,-1.0915,-0.835,0.674,0.2895,-0.9635,-0.121,0.056,-0.3245,-0.452,-0.4085,-0.3495,-0.167,-0.551,0.0595
-0.2515,-1.0845,-0.833,0.6685,0.2905,-0.959,-0.1215,0.0565,-0.321,-0.444,-0.4005,-0.3415,-0.162,-0.5495,0.0545
-0.264,-1.0835,-0.8195,0.674,0.2775,-0.952,-0.127,0.0625,-0.31,-0.431,-0.393,-0.342,-0.1675,-0.5525,0.049
-0.2585,-1.0875,-0.829,0.673,0.2855,-0.9585,-0.129,0.056,-0.317,-0.4325,-0.3915,-0.343,-0.1645,-0.5475,0.051
-0.2635,-1.0845,-0.821,0.6745,0.279,-0.953,-0.125,0.054,-0.3215,-0.434,-0.399,-0.349,-0.1695,-0.538,0.0565
-0.267,-1.0865,-0.8195,0.677,0.2765,-0.953,-0.1375,0.0485,-0.3275,-0.441,-0.4145,-0.365,-0.179,-0.547,0.0605
-0.252,-1.081,-0.829,0.667,0.2885,-0.9555,-0.1365,0.049,-0.3195,-0.4305,-0.402,-0.356,-0.1735,-0.548,0.05
-0.252,-1.0805,-0.8285,0.6665,0.2885,-0.955,-0.121,0.0595,-0.3115,-0.426,-0.395,-0.354,-0.172,-0.552,0.0505
-0.253,-1.0755,-0.8225,0.6645,0.2845,-0.949,-0.1215,0.0605,-0.3115,-0.4275,-0.396,-0.3555,-0.1765,-0.546,0.0565
-0.272,-1.078,-0.806,0.675,0.267,-0.942,-0.117,0.0635,-0.304,-0.4215,-0.3885,-0.3455,-0.1755,-0.544,0.051
-0.294,-1.0915,-0.798,0.693,0.252,-0.945,-0.118,0.0655,-0.302,-0.4165,-0.384,-0.338,-0.1735,-0.5585,0.05
-0.289,-1.0915,-0.802,0.6905,0.2565,-0.947,-0.116,0.063,-0.307,-0.4195,-0.383,-0.338,-0.1765,-0.5585,0.05
-0.267,-1.085,-0.818,0.6765,0.2755,-0.952,-0.128,0.049,-0.3205,-0.4355,-0.394,-0.3485,-0.178,-0.5595,0.0495
-0.2375,-1.0755,-0.838,0.6565,0.3005,-0.957,-0.134,0.048,-0.323,-0.4385,-0.3945,-0.345,-0.173,-0.557,0.054
-0.24,-1.0725,-0.8325,0.6565,0.2965,-0.9525,-0.116,0.056,-0.3165,-0.4305,-0.3815,-0.3345,-0.169,-0.5535,0.0545
-0.2525,-1.0795,-0.827,0.6665,0.287,-0.9535,-0.1165,0.054,-0.3195,-0.432,-0.382,-0.3335,-0.1715,-0.554,0.052
-0.2495,-1.0795,-0.83,0.6645,0.2905,-0.955,-0.126,0.053,-0.324,-0.435,-0.3815,-0.334,-0.1715,-0.542,0.0535
-0.268,-1.0795,-0.8115,0.674,0.2715,-0.946,-0.1245,0.0525,-0.322,-0.4285,-0.3725,-0.327,-0.1675,-0.5335,0.052
-0.259,-1.0675,-0.8085,0.6635,0.2745,-0.938,-0.122,0.0555,-0.319,-0.424,-0.3645,-0.315,-0.159,-0.539,0.049
-0.23,-1.044,-0.814,0.637,0.292,-0.929,-0.116,0.062,-0.3125,-0.4185,-0.3565,-0.3105,-0.1535,-0.533,0.0465
-0.229,-1.0465,-0.817,0.638,0.294,-0.932,-0.119,0.0625,-0.308,-0.4115,-0.3525,-0.31,-0.151,-0.5285,0.046
-0.242,-1.0585,-0.817,0.6505,0.2875,-0.938,-0.124,0.0625,-0.307,-0.4085,-0.3495,-0.307,-0.145,-0.532,0.0495
-0.2365,-1.0545,-0.818,0.646,0.2905,-0.9365,-0.1265,0.061,-0.304,-0.4055,-0.348,-0.306,-0.1405,-0.528,0.048
-0.2245,-1.0495,-0.825,0.637,0.3005,-0.9375,-0.136,0.0575,-0.299,-0.403,-0.3465,-0.3055,-0.1425,-0.521,0.0405
-0.2235,-1.0455,-0.822,0.6345,0.2995,-0.934,-0.127,0.0605,-0.292,-0.3945,-0.3385,-0.297,-0.1385,-0.5305,0.0445
-0.2545,-1.0635,-0.809,0.6595,0.2775,-0.937,-0.1285,0.054,-0.3,-0.3965,-0.339,-0.295,-0.134,-0.546,0.0455
-0.2545,-1.0685,-0.814,0.662,0.2795,-0.9415,-0.1345,0.0565,-0.2975,-0.389,-0.329,-0.284,-0.124,-0.538,0.0365
-0.224,-1.033,-0.8095,0.6285,0.293,-0.9215,-0.117,0.071,-0.2795,-0.367,-0.308,-0.2645,-0.1155,-0.5315,0.0385
-0.2185,-1.0245,-0.806,0.6215,0.294,-0.9155,-0.12,0.0675,-0.284,-0.3705,-0.315,-0.2725,-0.123,-0.523,0.037
-0.221,-1.029,-0.8085,0.625,0.294,-0.919,-0.1265,0.062,-0.285,-0.3725,-0.3225,-0.283,-0.129,-0.517,0.0315
-0.253,-1.034,-0.781,0.6435,0.264,-0.9075,-0.1245,0.059,-0.288,-0.3715,-0.32,-0.2805,-0.132,-0.5255,0.028
-0.238,-1.033,-0.7945,0.636,0.278,-0.914,-0.1365,0.0495,-0.295,-0.374,-0.32,-0.281,-0.124,-0.516,0.0265
-0.214,-1.014,-0.8005,0.6145,0.2935,-0.9075,-0.14,0.0495,-0.2855,-0.3645,-0.32,-0.2895,-0.125,-0.5125,0.028
-0.2185,-0.993,-0.7745,0.606,0.2785,-0.884,-0.147,0.0535,-0.2815,-0.358,-0.3185,-0.2925,-0.128,-0.501,0.026
-0.222,-0.996,-0.7735,0.6095,0.2755,-0.885,-0.1615,0.05,-0.286,-0.3625,-0.3185,-0.297,-0.1275,-0.486,0.026
-0.225,-1.011,-0.7855,0.6185,0.2805,-0.8985,-0.151,0.0495,-0.288,-0.368,-0.3225,-0.303,-0.134,-0.4955,0.0235
-0.2045,-0.9985,-0.7945,0.6015,0.295,-0.897,-0.1455,0.052,-0.286,-0.365,-0.3215,-0.302,-0.129,-0.4885,0.0225
-0.2125,-1.0025,-0.79,0.6075,0.2885,-0.8965,-0.147,0.055,-0.2785,-0.3555,-0.3115,-0.295,-0.129,-0.4945,0.019
-0.2015,-1.011,-0.8095,0.606,0.304,-0.9105,-0.151,0.0605,-0.269,-0.3445,-0.302,-0.2865,-0.1255,-0.497,0.0165
-0.194,-1.0165,-0.8225,0.6055,0.3145,-0.92,-0.154,0.0575,-0.269,-0.343,-0.298,-0.283,-0.1125,-0.498,0.019
-0.2035,-1.0155,-0.8115,0.61,0.304,-0.914,-0.1565,0.051,-0.27,-0.3415,-0.2955,-0.283,-0.1095,-0.502,0.012
-0.19,-0.9875,-0.7975,0.589,0.3035,-0.8925,-0.1645,0.0505,-0.267,-0.3375,-0.292,-0.2785,-0.108,-0.488,0.0125
-0.211,-0.9745,-0.7635,0.593,0.2765,-0.8695,-0.149,0.0615,-0.253,-0.3225,-0.2765,-0.26,-0.0995,-0.4755,0.0215
-0.2255,-0.9705,-0.7445,0.598,0.2595,-0.858,-0.142,0.075,-0.234,-0.301,-0.258,-0.24,-0.092,-0.4785,0.0095
-0.23,-0.9905,-0.76,0.6105,0.265,-0.8755,-0.145,0.0755,-0.235,-0.299,-0.2505,-0.234,-0.0885,-0.4915,0.0075
-0.223,-0.995,-0.772,0.609,0.2745,-0.884,-0.152,0.0745,-0.236,-0.2965,-0.2415,-0.225,-0.0815,-0.47,0.01
-0.206,-0.9765,-0.77,0.5915,0.282,-0.8735,-0.1425,0.0785,-0.2275,-0.2835,-0.226,-0.208,-0.069,-0.4635,0.005
-0.205,-0.97,-0.765,0.588,0.28,-0.868,-0.132,0.0795,-0.226,-0.275,-0.217,-0.203,-0.0695,-0.467,0.003
-0.1895,-0.9575,-0.768,0.574,0.2895,-0.863,-0.149,0.075,-0.2255,-0.269,-0.2135,-0.204,-0.072,-0.4665,-0.0055
-0.183,-0.9685,-0.7855,0.576,0.3015,-0.877,-0.1585,0.07,-0.225,-0.2645,-0.208,-0.2,-0.062,-0.4715,-0.007
-0.1755,-0.971,-0.795,0.5735,0.31,-0.883,-0.1645,0.071,-0.2195,-0.2545,-0.1965,-0.1925,-0.052,-0.47,-0.009
-0.157,-0.939,-0.782,0.5485,0.313,-0.861,-0.168,0.0785,-0.2015,-0.233,-0.179,-0.1775,-0.047,-0.466,-0.0165
-0.159,-0.9385,-0.779,0.549,0.31,-0.859,-0.172,0.0785,-0.1985,-0.226,-0.1715,-0.1725,-0.041,-0.46,-0.0185
-0.1745,-0.954,-0.7795,0.5645,0.3025,-0.867,-0.179,0.069,-0.207,-0.2295,-0.169,-0.1725,-0.034,-0.4595,-0.0195
-0.171,-0.9435,-0.7725,0.5575,0.3005,-0.858,-0.185,0.071,-0.2,-0.215,-0.153,-0.1595,-0.0245,-0.4445,-0.0245
-0.139,-0.9275,-0.7885,0.5335,0.3245,-0.858,-0.182,0.078,-0.189,-0.2,-0.1395,-0.1515,-0.014,-0.4365,-0.0215
-0.148,-0.918,-0.77,0.5335,0.311,-0.8445,-0.1755,0.084,-0.178,-0.1895,-0.128,-0.1455,-0.014,-0.434,-0.0245
-0.157,-0.92,-0.763,0.539,0.303,-0.842,-0.175,0.0845,-0.172,-0.183,-0.1195,-0.138,-0.0085,-0.4395,-0.0285
-0.1175,-0.916,-0.7985,0.517,0.3405,-0.8575,-0.183,0.075,-0.1745,-0.182,-0.1185,-0.137,0.0035,-0.441,-0.0265
-0.1105,-0.903,-0.7925,0.507,0.341,-0.848,-0.1845,0.0855,-0.1625,-0.168,-0.104,-0.126,0.0125,-0.4195,-0.0265
-0.1285,-0.901,-0.7725,0.515,0.322,-0.837,-0.1735,0.094,-0.151,-0.149,-0.0835,-0.106,0.0225,-0.421,-0.03
-0.146,-0.8985,-0.7525,0.5225,0.303,-0.8255,-0.177,0.0955,-0.1435,-0.1375,-0.0705,-0.0945,0.027,-0.4245,-0.033
-0.162,-0.9055,-0.743,0.534,0.2905,-0.8245,-0.1825,0.095,-0.1435,-0.1395,-0.068,-0.0915,0.029,-0.418,-0.031
-0.166,-0.918,-0.752,0.542,0.293,-0.835,-0.1905,0.0865,-0.1495,-0.1375,-0.0675,-0.0885,0.0325,-0.417,-0.0395
-0.143,-0.898,-0.7555,0.521,0.3065,-0.827,-0.1915,0.0855,-0.1455,-0.129,-0.058,-0.0775,0.0385,-0.4085,-0.0425
-0.1255,-0.8825,-0.7565,0.5045,0.3155,-0.82,-0.1925,0.086,-0.142,-0.123,-0.0495,-0.0685,0.0495,-0.4075,-0.045
-0.127,-0.878,-0.7505,0.5025,0.3115,-0.8145,-0.2055,0.0885,-0.1345,-0.11,-0.0375,-0.062,0.058,-0.3975,-0.05
-0.114,-0.866,-0.752,0.4905,0.319,-0.8095,-0.213,0.086,-0.1265,-0.1,-0.023,-0.0515,0.0675,-0.3825,-0.047
-0.1155,-0.8605,-0.7455,0.488,0.315,-0.8035,-0.216,0.079,-0.1245,-0.091,-0.013,-0.0445,0.0735,-0.372,-0.0555
-0.1165,-0.8565,-0.7405,0.487,0.312,-0.799,-0.219,0.0815,-0.1195,-0.0805,-0.0005,-0.0305,0.0765,-0.3705,-0.061
-0.1145,-0.8665,-0.752,0.4905,0.319,-0.8095,-0.217,0.0855,-0.114,-0.0735,0.0115,-0.0155,0.0875,-0.3865,-0.0575
-0.119,-0.864,-0.7445,0.492,0.3125,-0.8045,-0.2045,0.088,-0.108,-0.0625,0.0235,-0.006,0.0925,-0.3855,-0.06
-0.096,-0.838,-0.742,0.467,0.323,-0.7905,-0.2085,0.0915,-0.1015,-0.0535,0.034,0.004,0.093,-0.3725,-0.062
-0.101,-0.832,-0.7315,0.467,0.315,-0.782,-0.2205,0.087,-0.1015,-0.0485,0.037,0.008,0.095,-0.353,-0.0635
-0.1125,-0.8285,-0.7165,0.471,0.302,-0.7725,-0.2285,0.078,-0.1065,-0.051,0.0345,0.0055,0.0975,-0.344,-0.0675
-0.0995,-0.8105,-0.7105,0.4555,0.3055,-0.7605,-0.234,0.0695,-0.1135,-0.0535,0.034,0.007,0.101,-0.334,-0.071
-0.0855,-0.7895,-0.704,0.4375,0.3095,-0.747,-0.236,0.0665,-0.1115,-0.0495,0.044,0.0165,0.108,-0.319,-0.0685
-0.064,-0.782,-0.718,0.423,0.327,-0.7505,-0.243,0.0695,-0.104,-0.044,0.059,0.027,0.115,-0.3275,-0.067
-0.049,-0.779,-0.73,0.4145,0.34,-0.7545,-0.24,0.076,-0.0955,-0.033,0.077,0.045,0.1215,-0.333,-0.075
-0.0535,-0.776,-0.7225,0.415,0.3345,-0.7495,-0.2495,0.0715,-0.0945,-0.03,0.0815,0.048,0.1225,-0.3255,-0.0815
-0.087,-0.7965,-0.7095,0.442,0.311,-0.7535,-0.2605,0.0585,-0.102,-0.038,0.0715,0.037,0.122,-0.312,-0.0815
-0.084,-0.7805,-0.697,0.4325,0.3065,-0.739,-0.26,0.057,-0.098,-0.0335,0.0735,0.04,0.124,-0.304,-0.0845
-0.064,-0.751,-0.6865,0.4075,0.3115,-0.719,-0.266,0.0555,-0.094,-0.026,0.0835,0.0495,0.133,-0.291,-0.0835
-0.0685,-0.756,-0.6875,0.4125,0.3095,-0.722,-0.266,0.0545,-0.0895,-0.019,0.0895,0.0575,0.1385,-0.287,-0.0805
-0.0665,-0.758,-0.6915,0.4125,0.3125,-0.725,-0.261,0.0555,-0.085,-0.0145,0.092,0.0575,0.134,-0.2935,-0.084
-0.0545,-0.7445,-0.69,0.4,0.318,-0.7175,-0.274,0.0545,-0.0855,-0.011,0.099,0.066,0.148,-0.279,-0.084
-0.049,-0.738,-0.689,0.3935,0.32,-0.714,-0.2765,0.0655,-0.0755,0.0035,0.109,0.079,0.161,-0.2755,-0.0835
-0.047,-0.7345,-0.688,0.391,0.3205,-0.7115,-0.266,0.0655,-0.076,0.007,0.116,0.083,0.162,-0.276,-0.0795
-0.0395,-0.7195,-0.6795,0.38,0.32,-0.7,-0.2735,0.0735,-0.067,0.018,0.126,0.0935,0.17,-0.271,-0.0835
-0.0465,-0.716,-0.6695,0.3815,0.3115,-0.693,-0.266,0.099,-0.0425,0.0355,0.141,0.1095,0.1795,-0.2675,-0.087
-0.0455,-0.7175,-0.6715,0.3815,0.313,-0.6945,-0.2605,0.0995,-0.0435,0.039,0.156,0.1245,0.1895,-0.272,-0.0825
-0.029,-0.7145,-0.6855,0.372,0.3285,-0.7005,-0.27,0.0895,-0.0515,0.0355,0.16,0.1285,0.1975,-0.2775,-0.0845
-0.02,-0.6965,-0.6765,0.3585,0.328,-0.687,-0.2835,0.0755,-0.063,0.022,0.15,0.115,0.198,-0.257,-0.083
-0.0075,-0.6845,-0.6775,0.3465,0.335,-0.6815,-0.2935,0.067,-0.0705,0.0175,0.146,0.111,0.1975,-0.2415,-0.0845
0.015,-0.6825,-0.6975,0.334,0.356,-0.69,-0.294,0.069,-0.067,0.025,0.1545,0.116,0.199,-0.247,-0.083
-0.012,-0.6875,-0.6755,0.35,0.332,-0.682,-0.2875,0.0765,-0.056,0.04,0.167,0.125,0.199,-0.2555,-0.084
-0.042,-0.7025,-0.661,0.3725,0.3095,-0.682,-0.2775,0.0885,-0.0395,0.058,0.1825,0.135,0.201,-0.2565,-0.092
-0.0295,-0.701,-0.671,0.3655,0.3205,-0.6865,-0.2745,0.09,-0.039,0.062,0.185,0.135,0.206,-0.2545,-0.0925
-0.023,-0.694,-0.671,0.359,0.324,-0.6825,-0.2805,0.0905,-0.038,0.064,0.1855,0.134,0.212,-0.249,-0.0895
-0.0125,-0.6855,-0.673,0.3495,0.33,-0.6795,-0.287,0.0845,-0.0435,0.06,0.183,0.132,0.216,-0.2435,-0.085
0.001,-0.684,-0.685,0.342,0.343,-0.685,-0.295,0.079,-0.0505,0.056,0.1785,0.1285,0.2195,-0.2455,-0.081
0.012,-0.686,-0.6985,0.337,0.355,-0.6925,-0.3005,0.081,-0.0475,0.0595,0.182,0.134,0.223,-0.25,-0.0785
0.0065,-0.6895,-0.696,0.342,0.351,-0.693,-0.2965,0.083,-0.0465,0.063,0.185,0.1395,0.227,-0.2515,-0.0735
-0.0185,-0.691,-0.673,0.355,0.3275,-0.6825,-0.292,0.094,-0.034,0.0765,0.197,0.1525,0.2345,-0.2415,-0.073
-0.0045,-0.6805,-0.676,0.343,0.3355,-0.6785,-0.292,0.0985,-0.033,0.077,0.199,0.1605,0.237,-0.2315,-0.074
0.017,-0.684,-0.701,0.3335,0.359,-0.6925,-0.2995,0.088,-0.049,0.056,0.181,0.147,0.2355,-0.2275,-0.073
0.035,-0.686,-0.7205,0.326,0.3775,-0.7035,-0.309,0.078,-0.054,0.051,0.1875,0.1545,0.239,-0.2265,-0.0785
0.0275,-0.6805,-0.7075,0.3265,0.3675,-0.694,-0.3025,0.0805,-0.05,0.0575,0.192,0.162,0.2355,-0.226,-0.08
0.0115,-0.677,-0.688,0.333,0.3495,-0.683,-0.298,0.0845,-0.0465,0.0565,0.188,0.1615,0.2335,-0.2295,-0.0745
-0.0145,-0.6815,-0.667,0.3485,0.326,-0.6745,-0.2995,0.0935,-0.038,0.068,0.202,0.172,0.237,-0.2365,-0.072
-0.0315,-0.6795,-0.648,0.3555,0.3085,-0.664,-0.29,0.106,-0.0265,0.0795,0.211,0.1845,0.2385,-0.2445,-0.0765
0.01,-0.6695,-0.6795,0.33,0.3445,-0.6745,-0.297,0.1055,-0.028,0.0775,0.2105,0.188,0.2435,-0.2505,-0.0785
0.0025,-0.674,-0.676,0.336,0.3395,-0.675,-0.2995,0.095,-0.0435,0.0625,0.196,0.1705,0.234,-0.247,-0.077
0.002,-0.6585,-0.6605,0.3285,0.331,-0.6595,-0.305,0.09,-0.0505,0.0515,0.187,0.163,0.227,-0.229,-0.079
0.0105,-0.656,-0.6665,0.323,0.3385,-0.6615,-0.3,0.0955,-0.0475,0.0575,0.1995,0.1775,0.2345,-0.2265,-0.0765
0.0085,-0.6835,-0.6925,0.3375,0.3505,-0.688,-0.293,0.0995,-0.047,0.0625,0.2075,0.1895,0.2415,-0.2395,-0.071
0.0225,-0.6925,-0.715,0.3355,0.369,-0.704,-0.3035,0.102,-0.0445,0.061,0.2015,0.179,0.24,-0.2445,-0.07
0.022,-0.6795,-0.701,0.329,0.3615,-0.6905,-0.3045,0.102,-0.046,0.057,0.196,0.1715,0.233,-0.2405,-0.0745
0.0295,-0.667,-0.6965,0.319,0.363,-0.682,-0.298,0.107,-0.0395,0.0615,0.203,0.1805,0.2365,-0.231,-0.078
0.021,-0.665,-0.6865,0.3225,0.3535,-0.676,-0.29,0.1175,-0.026,0.073,0.2135,0.191,0.2425,-0.2235,-0.08
-0.0025,-0.6775,-0.6745,0.3405,0.336,-0.676,-0.2985,0.1155,-0.026,0.069,0.2095,0.189,0.2455,-0.218,-0.0795
0.001,-0.676,-0.677,0.338,0.339,-0.6765,-0.305,0.106,-0.0375,0.052,0.1935,0.176,0.248,-0.2225,-0.072
0.0105,-0.667,-0.6775,0.3285,0.344,-0.6725,-0.2975,0.1095,-0.0375,0.049,0.188,0.1695,0.238,-0.221,-0.076
0.0105,-0.672,-0.6825,0.331,0.3465,-0.6775,-0.295,0.1165,-0.0305,0.0515,0.1895,0.165,0.2315,-0.209,-0.082
0.0175,-0.677,-0.6945,0.3295,0.356,-0.6855,-0.3025,0.114,-0.033,0.0525,0.1935,0.17,0.236,-0.219,-0.0785
0.028,-0.6755,-0.7035,0.324,0.3655,-0.6895,-0.297,0.113,-0.0355,0.0505,0.1925,0.173,0.2355,-0.234,-0.078
0.033,-0.6635,-0.6965,0.3155,0.365,-0.6805,-0.298,0.1155,-0.031,0.0525,0.1945,0.1745,0.2345,-0.2215,-0.0785
0.0145,-0.666,-0.68,0.326,0.347,-0.6735,-0.286,0.1255,-0.021,0.0655,0.2045,0.183,0.2375,-0.22,-0.0805
0.0085,-0.67,-0.6785,0.331,0.3435,-0.6745,-0.293,0.127,-0.0205,0.0675,0.2025,0.183,0.242,-0.2255,-0.0825
0.0095,-0.6685,-0.678,0.3295,0.3435,-0.6735,-0.299,0.127,-0.0245,0.067,0.205,0.188,0.2415,-0.219,-0.086
-0.0025,-0.669,-0.6665,0.336,0.332,-0.668,-0.2835,0.1255,-0.0335,0.059,0.198,0.182,0.236,-0.218,-0.083
-0.0075,-0.673,-0.6655,0.3405,0.3295,-0.6695,-0.296,0.116,-0.0425,0.049,0.1875,0.173,0.2355,-0.2195,-0.081
-0.004,-0.684,-0.68,0.3445,0.338,-0.682,-0.288,0.1195,-0.0425,0.0495,0.1885,0.1735,0.2355,-0.2205,-0.083
0.01,-0.6725,-0.6825,0.3315,0.346,-0.6775,-0.289,0.1285,-0.0335,0.0565,0.1905,0.1725,0.2235,-0.2245,-0.0885
0.0165,-0.656,-0.673,0.32,0.345,-0.6645,-0.292,0.1355,-0.0295,0.058,0.1895,0.167,0.2165,-0.2295,-0.09
0.021,-0.6455,-0.666,0.3125,0.3435,-0.656,-0.2905,0.13,-0.0335,0.0545,0.1835,0.161,0.2195,-0.216,-0.0835
0.026,-0.626,-0.652,0.3005,0.339,-0.6395,-0.2915,0.125,-0.036,0.053,0.1805,0.1555,0.2165,-0.199,-0.0845
0.0315,-0.6325,-0.664,0.301,0.3475,-0.6485,-0.295,0.1275,-0.04,0.048,0.176,0.153,0.22,-0.2105,-0.081
0.0395,-0.6545,-0.694,0.3075,0.367,-0.6745,-0.2905,0.134,-0.033,0.054,0.1815,0.162,0.224,-0.2355,-0.0785
0.0425,-0.6555,-0.698,0.307,0.3705,-0.677,-0.281,0.139,-0.031,0.054,0.1775,0.1575,0.217,-0.2375,-0.0765
0.0285,-0.661,-0.69,0.3165,0.359,-0.676,-0.28,0.1425,-0.0245,0.056,0.174,0.159,0.22,-0.2315,-0.073
0.0065,-0.673,-0.679,0.3335,0.3425,-0.6765,-0.2775,0.1475,-0.017,0.059,0.179,0.167,0.223,-0.2275,-0.071
0.01,-0.6805,-0.69,0.3355,0.35,-0.6855,-0.291,0.1425,-0.0195,0.0525,0.173,0.1605,0.227,-0.2285,-0.0715
0.0135,-0.689,-0.703,0.338,0.3585,-0.6965,-0.2915,0.136,-0.03,0.0435,0.1655,0.153,0.2285,-0.23,-0.0705
0.0095,-0.6855,-0.695,0.3385,0.3525,-0.691,-0.2885,0.1375,-0.0295,0.047,0.167,0.1545,0.2255,-0.231,-0.0705
0.009,-0.6845,-0.6935,0.338,0.3515,-0.689,-0.29,0.1425,-0.018,0.056,0.1735,0.157,0.2295,-0.23,-0.075
0.008,-0.6875,-0.6955,0.34,0.352,-0.692,-0.2755,0.1455,-0.019,0.0525,0.1755,0.155,0.2305,-0.2285,-0.075
0.013,-0.689,-0.702,0.3385,0.3575,-0.696,-0.2775,0.144,-0.0185,0.052,0.175,0.1575,0.2365,-0.2435,-0.0705
-0.004,-0.6875,-0.6835,0.346,0.3395,-0.686,-0.274,0.15,-0.012,0.059,0.181,0.163,0.236,-0.247,-0.072
-0.015,-0.6965,-0.6815,0.356,0.3335,-0.689,-0.2685,0.1525,-0.0115,0.061,0.185,0.164,0.236,-0.246,-0.0745
0.005,-0.707,-0.7115,0.351,0.358,-0.7095,-0.2805,0.147,-0.0165,0.0575,0.178,0.16,0.2405,-0.244,-0.0725
0.0025,-0.7015,-0.704,0.35,0.353,-0.703,-0.271,0.152,-0.0095,0.061,0.1815,0.163,0.237,-0.2375,-0.076
0.007,-0.6975,-0.7045,0.3455,0.356,-0.7015,-0.266,0.154,-0.008,0.0585,0.18,0.159,0.235,-0.2405,-0.0755
0.0225,-0.6955,-0.7185,0.337,0.3705,-0.7075,-0.268,0.149,-0.016,0.052,0.1725,0.152,0.2295,-0.2365,-0.077
0.02,-0.688,-0.7085,0.3345,0.364,-0.6985,-0.2625,0.153,-0.012,0.0545,0.176,0.1565,0.228,-0.2375,-0.0795
0.011,-0.6855,-0.6965,0.3375,0.3535,-0.6915,-0.2715,0.1475,-0.019,0.0485,0.1675,0.146,0.224,-0.2405,-0.0785
-0.0015,-0.693,-0.6915,0.3475,0.345,-0.6925,-0.282,0.132,-0.035,0.0315,0.1505,0.128,0.2195,-0.229,-0.08
-0.0035,-0.695,-0.692,0.3495,0.3445,-0.694,-0.283,0.1325,-0.035,0.031,0.149,0.1275,0.2225,-0.2345,-0.079
-0.016,-0.7035,-0.688,0.36,0.336,-0.696,-0.281,0.1355,-0.032,0.034,0.149,0.125,0.2185,-0.23,-0.082
-0.0005,-0.6995,-0.699,0.35,0.349,-0.6995,-0.283,0.134,-0.033,0.032,0.1505,0.121,0.2145,-0.2155,-0.0865
0.0045,-0.7045,-0.7085,0.3505,0.3565,-0.7065,-0.2825,0.132,-0.0355,0.0295,0.149,0.122,0.2105,-0.231,-0.0855
-0.0175,-0.7085,-0.6905,0.363,0.3365,-0.6995,-0.275,0.1395,-0.0305,0.0325,0.1535,0.1285,0.211,-0.2325,-0.0825
-0.003,-0.687,-0.684,0.345,0.3405,-0.686,-0.2685,0.15,-0.024,0.039,0.1595,0.1315,0.2085,-0.2315,-0.0755
-0.005,-0.6855,-0.681,0.3455,0.338,-0.6835,-0.2625,0.151,-0.0215,0.04,0.159,0.135,0.2075,-0.2345,-0.08
-0.007,-0.6785,-0.672,0.343,0.3325,-0.6755,-0.2625,0.1535,-0.0205,0.042,0.16,0.14,0.21,-0.226,-0.0795
-0.003,-0.674,-0.6715,0.3385,0.3345,-0.673,-0.258,0.1495,-0.0265,0.0355,0.1515,0.127,0.2,-0.228,-0.077
0.0055,-0.6765,-0.682,0.336,0.3435,-0.6795,-0.267,0.1455,-0.0305,0.032,0.145,0.12,0.1955,-0.2325,-0.082
-0.001,-0.6795,-0.678,0.3405,0.3385,-0.679,-0.273,0.1465,-0.03,0.03,0.142,0.118,0.19,-0.2285,-0.076
-0.0095,-0.674,-0.665,0.342,0.328,-0.6695,-0.2655,0.1495,-0.025,0.029,0.1475,0.1245,0.19,-0.2345,-0.076
0.0105,-0.669,-0.6795,0.3295,0.345,-0.6745,-0.255,0.1515,-0.0245,0.032,0.151,0.129,0.1935,-0.2435,-0.077
0.0015,-0.6865,-0.688,0.3425,0.3445,-0.6875,-0.2545,0.1495,-0.0285,0.0325,0.146,0.1225,0.1885,-0.248,-0.0745
-0.009,-0.691,-0.6825,0.3505,0.337,-0.687,-0.271,0.1465,-0.0315,0.03,0.1435,0.118,0.1865,-0.25,-0.0745
-0.026,-0.7065,-0.6805,0.3665,0.3275,-0.6935,-0.2665,0.1355,-0.0425,0.02,0.133,0.1075,0.1825,-0.242,-0.0795
-0.027,-0.701,-0.6745,0.3645,0.3235,-0.688,-0.2645,0.1375,-0.041,0.023,0.133,0.107,0.1775,-0.2395,-0.0865
-0.008,-0.683,-0.6755,0.346,0.334,-0.6795,-0.2635,0.148,-0.0305,0.0355,0.144,0.115,0.1835,-0.243,-0.0875
-0.011,-0.692,-0.681,0.3515,0.335,-0.687,-0.261,0.1525,-0.027,0.0425,0.149,0.12,0.1905,-0.24,-0.0875
-0.0185,-0.6945,-0.6755,0.3565,0.3285,-0.6855,-0.2655,0.1535,-0.0265,0.0425,0.148,0.1185,0.192,-0.23,-0.083
-0.0205,-0.7,-0.68,0.3605,0.3295,-0.69,-0.258,0.1495,-0.0285,0.0395,0.146,0.1125,0.19,-0.229,-0.0835
-0.02,-0.7,-0.6795,0.3605,0.3295,-0.69,-0.2585,0.1485,-0.027,0.043,0.147,0.1135,0.187,-0.2385,-0.083
-0.031,-0.704,-0.673,0.3675,0.321,-0.689,-0.2645,0.1475,-0.027,0.0405,0.1465,0.1135,0.1885,-0.2345,-0.076
-0.027,-0.701,-0.6745,0.364,0.324,-0.688,-0.2585,0.149,-0.0245,0.043,0.1535,0.1185,0.193,-0.2335,-0.0735
-0.0105,-0.686,-0.6755,0.3485,0.3325,-0.681,-0.2525,0.1565,-0.017,0.0495,0.161,0.129,0.198,-0.242,-0.073
-0.004,-0.7,-0.696,0.3525,0.346,-0.698,-0.2585,0.15,-0.025,0.0375,0.148,0.118,0.1975,-0.25,-0.07
-0.008,-0.705,-0.6975,0.3565,0.345,-0.7015,-0.259,0.1485,-0.0255,0.038,0.151,0.1205,0.202,-0.257,-0.0675
-0.0095,-0.703,-0.694,0.3565,0.3425,-0.699,-0.258,0.1475,-0.0255,0.04,0.1565,0.127,0.2065,-0.2535,-0.0695
-0.006,-0.712,-0.706,0.3595,0.35,-0.7095,-0.2675,0.139,-0.036,0.028,0.1455,0.1155,0.2015,-0.252,-0.072
-0.031,-0.72,-0.689,0.376,0.329,-0.705,-0.249,0.149,-0.025,0.039,0.1515,0.121,0.2025,-0.2545,-0.075
-0.0295,-0.722,-0.6925,0.376,0.3315,-0.7075,-0.2505,0.148,-0.026,0.037,0.148,0.1205,0.201,-0.251,-0.0755
-0.0005,-0.706,-0.7055,0.3535,0.3525,-0.706,-0.274,0.1345,-0.042,0.023,0.137,0.1105,0.202,-0.244,-0.0735
0.009,-0.6895,-0.6985,0.3405,0.3535,-0.6945,-0.275,0.132,-0.038,0.029,0.1335,0.108,0.2055,-0.243,-0.074
0.0105,-0.6875,-0.6985,0.3385,0.3545,-0.693,-0.2815,0.129,-0.0425,0.022,0.1265,0.1055,0.206,-0.2345,-0.0725
-0.0315,-0.703,-0.6715,0.3675,0.32,-0.6875,-0.2665,0.1375,-0.037,0.0245,0.1355,0.1155,0.2025,-0.236,-0.0695
-0.058,-0.7145,-0.6565,0.3865,0.2995,-0.6855,-0.2525,0.1495,-0.022,0.0305,0.1425,0.132,0.199,-0.2485,-0.0725
-0.0325,-0.7185,-0.686,0.3755,0.3265,-0.7025,-0.263,0.141,-0.0315,0.0145,0.1345,0.131,0.195,-0.251,-0.0725
-0.0315,-0.7145,-0.683,0.373,0.326,-0.699,-0.2605,0.144,-0.0325,0.0125,0.136,0.137,0.1945,-0.258,-0.068
-0.04,-0.7155,-0.6755,0.378,0.3175,-0.6955,-0.254,0.1505,-0.0305,0.015,0.1395,0.143,0.1995,-0.2595,-0.0695
-0.026,-0.7155,-0.689,0.371,0.3315,-0.7025,-0.264,0.1365,-0.0445,0.0035,0.132,0.132,0.1965,-0.2485,-0.0725
-0.0345,-0.7175,-0.683,0.376,0.3245,-0.7005,-0.268,0.1325,-0.0525,0.001,0.1265,0.1275,0.1995,-0.252,-0.0695
-0.0325,-0.6995,-0.667,0.3665,0.317,-0.6835,-0.264,0.1335,-0.055,0.003,0.1255,0.1245,0.199,-0.2375,-0.07
-0.0265,-0.6855,-0.6595,0.3565,0.3165,-0.673,-0.268,0.1285,-0.061,0.0025,0.125,0.123,0.197,-0.2225,-0.066
-0.0335,-0.706,-0.6725,0.37,0.3195,-0.6895,-0.2715,0.1195,-0.068,0.0015,0.1235,0.12,0.1995,-0.2375,-0.0635
-0.0175,-0.696,-0.6785,0.357,0.33,-0.6875,-0.2795,0.109,-0.0765,-0.005,0.1165,0.11,0.1945,-0.228,-0.0675
-0.023,-0.702,-0.679,0.3625,0.328,-0.691,-0.2785,0.114,-0.0705,0.004,0.125,0.112,0.196,-0.2355,-0.0655
-0.0195,-0.709,-0.6895,0.364,0.335,-0.6995,-0.2685,0.1195,-0.062,0.015,0.136,0.1195,0.2,-0.2365,-0.0645
-0.0085,-0.7085,-0.7,0.3585,0.346,-0.7045,-0.267,0.1185,-0.062,0.016,0.137,0.1195,0.1995,-0.241,-0.0635
-0.0245,-0.7205,-0.6955,0.373,0.3355,-0.708,-0.2585,0.124,-0.0535,0.024,0.149,0.128,0.197,-0.2615,-0.0645
-0.037,-0.7175,-0.681,0.3775,0.322,-0.6995,-0.2515,0.131,-0.0375,0.0375,0.161,0.138,0.2,-0.248,-0.0695
-0.0455,-0.7175,-0.672,0.3815,0.313,-0.695,-0.2565,0.128,-0.035,0.036,0.1545,0.125,0.193,-0.246,-0.0685
-0.0365,-0.7155,-0.6785,0.3765,0.321,-0.6975,-0.264,0.123,-0.0455,0.0215,0.1435,0.114,0.19,-0.249,-0.0615
-0.042,-0.721,-0.679,0.382,0.3185,-0.7005,-0.2605,0.1225,-0.045,0.0255,0.147,0.1165,0.195,-0.2495,-0.0645
-0.064,-0.7295,-0.6655,0.397,0.3005,-0.6975,-0.2615,0.1215,-0.046,0.0255,0.1435,0.111,0.187,-0.2595,-0.0665
-0.058,-0.727,-0.6695,0.393,0.306,-0.6985,-0.2655,0.12,-0.0495,0.024,0.1405,0.1085,0.186,-0.25,-0.067
-0.0435,-0.7165,-0.673,0.3805,0.3145,-0.695,-0.2655,0.1215,-0.0465,0.03,0.142,0.108,0.188,-0.24,-0.07
-0.026,-0.7105,-0.684,0.3685,0.329,-0.6975,-0.2665,0.118,-0.0505,0.025,0.1345,0.1025,0.186,-0.2595,-0.0685
-0.0425,-0.71,-0.668,0.3765,0.313,-0.689,-0.2605,0.117,-0.0525,0.0235,0.1365,0.105,0.182,-0.2665,-0.068
-0.047,-0.708,-0.661,0.3775,0.307,-0.6845,-0.2665,0.116,-0.053,0.0215,0.138,0.109,0.1845,-0.265,-0.065
-0.0215,-0.705,-0.6835,0.3635,0.331,-0.6945,-0.2645,0.1085,-0.056,0.015,0.13,0.104,0.1875,-0.246,-0.0605
-0.011,-0.702,-0.691,0.357,0.34,-0.697,-0.2695,0.1035,-0.064,0.0065,0.126,0.107,0.193,-0.242,-0.0585
-0.0055,-0.7085,-0.703,0.3575,0.3485,-0.706,-0.285,0.0985,-0.068,0.0035,0.135,0.12,0.203,-0.257,-0.0605
-0.015,-0.7185,-0.7035,0.367,0.344,-0.7115,-0.2815,0.0945,-0.0705,-0.003,0.1265,0.1125,0.2,-0.2425,-0.0525
-0.0165,-0.7255,-0.709,0.3715,0.346,-0.7175,-0.289,0.0935,-0.0745,-0.01,0.1175,0.1065,0.199,-0.2495,-0.0435
-0.0275,-0.731,-0.7035,0.379,0.338,-0.7175,-0.2825,0.103,-0.0655,-0.0035,0.129,0.117,0.2025,-0.256,-0.0435
-0.0325,-0.731,-0.6985,0.382,0.333,-0.715,-0.2745,0.1055,-0.064,-0.0055,0.1285,0.1175,0.202,-0.251,-0.042
-0.022,-0.722,-0.7,0.3725,0.339,-0.7115,-0.2775,0.107,-0.0635,-0.0045,0.131,0.122,0.201,-0.25,-0.044
-0.0265,-0.715,-0.689,0.371,0.331,-0.702,-0.2685,0.1125,-0.061,-0.0035,0.135,0.1275,0.197,-0.2485,-0.0445
-0.0315,-0.724,-0.6925,0.378,0.3305,-0.708,-0.2715,0.104,-0.07,-0.0125,0.126,0.117,0.1945,-0.2505,-0.0465
-0.046,-0.7435,-0.698,0.395,0.326,-0.721,-0.2755,0.099,-0.074,-0.0145,0.122,0.1125,0.1985,-0.2545,-0.045
-0.052,-0.7615,-0.7095,0.407,0.3285,-0.7355,-0.289,0.084,-0.0885,-0.0245,0.1145,0.1065,0.1965,-0.2585,-0.0425
-0.049,-0.765,-0.716,0.407,0.3335,-0.7405,-0.2985,0.0755,-0.097,-0.031,0.109,0.098,0.192,-0.259,-0.0445
-0.054,-0.761,-0.707,0.4075,0.3265,-0.734,-0.287,0.0825,-0.089,-0.022,0.1155,0.106,0.1935,-0.2685,-0.0435
-0.0485,-0.75,-0.702,0.3995,0.327,-0.7265,-0.288,0.085,-0.0865,-0.015,0.1215,0.115,0.195,-0.262,-0.043
-0.032,-0.7325,-0.701,0.3825,0.3345,-0.717,-0.2785,0.0905,-0.083,-0.01,0.127,0.12,0.197,-0.2575,-0.0415
-0.034,-0.732,-0.698,0.3835,0.332,-0.715,-0.2765,0.087,-0.087,-0.0105,0.1245,0.118,0.196,-0.264,-0.04
-0.047,-0.7425,-0.695,0.395,0.324,-0.719,-0.2805,0.0865,-0.089,-0.011,0.1235,0.117,0.1965,-0.261,-0.041
-0.027,-0.727,-0.7,0.3775,0.3365,-0.714,-0.281,0.0875,-0.0855,-0.0075,0.125,0.118,0.1965,-0.2575,-0.041
-0.019,-0.716,-0.697,0.368,0.339,-0.707,-0.281,0.09,-0.083,-0.007,0.127,0.1225,0.1925,-0.2505,-0.0435
-0.031,-0.7385,-0.707,0.385,0.338,-0.723,-0.2785,0.087,-0.0905,-0.0125,0.1225,0.119,0.197,-0.249,-0.0415
-0.0255,-0.738,-0.7125,0.382,0.3435,-0.7255,-0.291,0.0755,-0.097,-0.018,0.11,0.1,0.1885,-0.2455,-0.041
-0.008,-0.715,-0.707,0.362,0.3495,-0.7115,-0.283,0.0845,-0.0855,-0.012,0.117,0.1045,0.181,-0.2525,-0.0415
0.009,-0.71,-0.719,0.351,0.364,-0.715,-0.2775,0.095,-0.0765,-0.0045,0.127,0.114,0.1875,-0.2535,-0.0395
-0.028,-0.7215,-0.694,0.375,0.333,-0.708,-0.2795,0.091,-0.0775,-0.004,0.129,0.112,0.1825,-0.2505,-0.048
-0.05,-0.7305,-0.6805,0.3905,0.3155,-0.7055,-0.2875,0.0845,-0.0825,-0.0065,0.127,0.11,0.186,-0.2585,-0.0475
-0.041,-0.733,-0.6915,0.3875,0.325,-0.7125,-0.2935,0.087,-0.081,-0.008,0.1225,0.102,0.1855,-0.2495,-0.046
-0.0325,-0.724,-0.692,0.3785,0.3295,-0.708,-0.292,0.087,-0.0805,-0.0115,0.1185,0.0925,0.1805,-0.2455,-0.0475
-0.0255,-0.714,-0.6885,0.37,0.3315,-0.7015,-0.2915,0.0865,-0.081,-0.0115,0.12,0.094,0.1815,-0.2435,-0.047
-0.043,-0.7215,-0.678,0.3825,0.3175,-0.7,-0.283,0.094,-0.073,-0.0035,0.131,0.107,0.181,-0.246,-0.053
-0.0295,-0.7095,-0.68,0.37,0.325,-0.695,-0.289,0.0925,-0.074,-0.0015,0.133,0.113,0.1835,-0.2415,-0.0535
-0.024,-0.6865,-0.6625,0.3555,0.3195,-0.675,-0.2895,0.095,-0.075,-0.004,0.1295,0.1105,0.184,-0.231,-0.049
-0.0255,-0.687,-0.6615,0.3565,0.318,-0.6745,-0.2785,0.0975,-0.073,-0.0045,0.1265,0.112,0.186,-0.234,-0.047
-0.02,-0.6965,-0.6765,0.3585,0.328,-0.687,-0.2865,0.094,-0.072,-0.002,0.129,0.1195,0.1895,-0.2315,-0.0475
-0.026,-0.7115,-0.6855,0.369,0.33,-0.699,-0.287,0.095,-0.072,-0.0025,0.1305,0.125,0.1905,-0.2425,-0.047
-0.0375,-0.72,-0.6825,0.379,0.3225,-0.7015,-0.285,0.089,-0.0785,-0.005,0.133,0.135,0.196,-0.2405,-0.0475
-0.052,-0.709,-0.657,0.381,0.3025,-0.6835,-0.286,0.0925,-0.0725,0.003,0.1455,0.146,0.201,-0.2285,-0.0505
-0.0465,-0.703,-0.6565,0.375,0.305,-0.68,-0.2925,0.0925,-0.0735,0.0,0.141,0.135,0.195,-0.2285,-0.0515
-0.027,-0.6995,-0.673,0.3635,0.323,-0.6865,-0.2945,0.088,-0.079,-0.004,0.136,0.1295,0.195,-0.2255,-0.055
0.0035,-0.681,-0.6845,0.339,0.344,-0.683,-0.279,0.101,-0.064,0.0115,0.1505,0.144,0.2055,-0.2215,-0.0595
0.0075,-0.6755,-0.6825,0.3345,0.345,-0.6795,-0.2965,0.0965,-0.0655,0.011,0.1505,0.143,0.2035,-0.2145,-0.058
-0.012,-0.687,-0.6755,0.35,0.332,-0.6815,-0.309,0.089,-0.076,0.001,0.143,0.1365,0.198,-0.208,-0.0575
-0.012,-0.6855,-0.674,0.349,0.331,-0.68,-0.2965,0.091,-0.0735,0.0055,0.153,0.1435,0.203,-0.212,-0.0585
-0.0075,-0.678,-0.6705,0.343,0.3315,-0.6745,-0.298,0.0885,-0.076,0.003,0.1505,0.1415,0.2015,-0.2195,-0.0625
-0.007,-0.6805,-0.673,0.344,0.333,-0.677,-0.3075,0.0815,-0.0855,-0.0075,0.1405,0.1355,0.1965,-0.214,-0.062
-0.0175,-0.6865,-0.6685,0.3525,0.3255,-0.678,-0.301,0.0855,-0.0795,-0.001,0.1505,0.143,0.2005,-0.207,-0.0595
-0.019,-0.682,-0.6625,0.351,0.322,-0.6725,-0.2895,0.096,-0.0705,0.012,0.1645,0.156,0.2045,-0.198,-0.058
-0.0015,-0.6815,-0.68,0.342,0.339,-0.681,-0.2935,0.096,-0.0755,0.0065,0.161,0.1535,0.2065,-0.2015,-0.0525
0.002,-0.687,-0.6885,0.343,0.345,-0.688,-0.2885,0.098,-0.078,0.0035,0.155,0.1485,0.2035,-0.212,-0.0505
-0.004,-0.687,-0.683,0.346,0.3395,-0.6855,-0.2835,0.0985,-0.075,0.0035,0.1575,0.1525,0.202,-0.2075,-0.0555
-0.008,-0.7055,-0.6975,0.357,0.3445,-0.702,-0.282,0.099,-0.0745,-0.0025,0.1565,0.1495,0.2035,-0.222,-0.0585
-0.012,-0.7035,-0.691,0.358,0.3395,-0.6975,-0.2725,0.0995,-0.076,-0.0005,0.1585,0.1525,0.1995,-0.2275,-0.055
-0.0145,-0.68,-0.6655,0.3475,0.3255,-0.673,-0.2645,0.1015,-0.073,0.003,0.159,0.151,0.196,-0.21,-0.0545
0.006,-0.664,-0.67,0.329,0.338,-0.667,-0.2665,0.1035,-0.069,0.0065,0.159,0.1455,0.1965,-0.2165,-0.0585
0.036,-0.647,-0.6835,0.306,0.36,-0.6655,-0.2655,0.107,-0.0625,0.0125,0.1635,0.1485,0.2015,-0.221,-0.0595
0.037,-0.642,-0.679,0.3025,0.358,-0.6605,-0.265,0.1075,-0.0665,0.0105,0.1605,0.1485,0.2035,-0.217,-0.0605
0.008,-0.65,-0.658,0.3215,0.333,-0.654,-0.2675,0.104,-0.0695,0.0065,0.157,0.1435,0.198,-0.2165,-0.071
0.0045,-0.657,-0.6615,0.3265,0.333,-0.6595,-0.265,0.104,-0.069,0.009,0.151,0.133,0.1925,-0.2115,-0.073
0.025,-0.662,-0.687,0.319,0.356,-0.675,-0.2665,0.1135,-0.0655,0.016,0.152,0.135,0.1995,-0.2265,-0.0685
0.032,-0.6695,-0.7015,0.319,0.367,-0.686,-0.258,0.1325,-0.045,0.033,0.169,0.148,0.2115,-0.233,-0.0745
0.0325,-0.6745,-0.7065,0.321,0.3695,-0.6905,-0.2535,0.1335,-0.041,0.0365,0.169,0.143,0.208,-0.2275,-0.077
0.022,-0.675,-0.6975,0.3265,0.3595,-0.6865,-0.2595,0.1315,-0.0425,0.0335,0.167,0.1415,0.206,-0.2195,-0.0775
0.0185,-0.6625,-0.6815,0.322,0.35,-0.672,-0.2585,0.1345,-0.037,0.0405,0.176,0.152,0.21,-0.2135,-0.0795
-0.007,-0.6575,-0.651,0.3325,0.322,-0.6545,-0.257,0.135,-0.035,0.0445,0.179,0.1545,0.2115,-0.2115,-0.0755
-0.0255,-0.654,-0.6285,0.34,0.3015,-0.6415,-0.266,0.1305,-0.036,0.046,0.1835,0.1635,0.2195,-0.2035,-0.0695
-0.007,-0.6465,-0.6395,0.3265,0.316,-0.643,-0.2755,0.1235,-0.042,0.045,0.1875,0.1665,0.225,-0.208,-0.065
0.0135,-0.6425,-0.656,0.3145,0.3345,-0.6495,-0.283,0.122,-0.0425,0.045,0.1885,0.167,0.2285,-0.199,-0.0625
0.019,-0.6385,-0.6575,0.31,0.3385,-0.6485,-0.2945,0.115,-0.0465,0.0385,0.185,0.167,0.2315,-0.1895,-0.057
0.024,-0.63,-0.654,0.303,0.339,-0.642,-0.297,0.113,-0.048,0.0335,0.183,0.166,0.237,-0.186,-0.053
0.033,-0.621,-0.654,0.2945,0.3435,-0.638,-0.313,0.101,-0.057,0.026,0.1785,0.1615,0.237,-0.1695,-0.0515
0.024,-0.6445,-0.6685,0.3105,0.346,-0.6565,-0.3235,0.0925,-0.0625,0.0185,0.174,0.1555,0.237,-0.176,-0.042
0.023,-0.662,-0.685,0.32,0.354,-0.674,-0.318,0.101,-0.051,0.026,0.1855,0.1695,0.249,-0.1935,-0.0385
0.034,-0.6555,-0.689,0.311,0.3615,-0.6725,-0.325,0.0955,-0.056,0.028,0.188,0.172,0.25,-0.2015,-0.0425
0.0565,-0.6585,-0.7155,0.3015,0.386,-0.6875,-0.3325,0.086,-0.062,0.025,0.1805,0.1645,0.2525,-0.206,-0.0355
0.073,-0.6515,-0.725,0.2895,0.399,-0.6885,-0.3385,0.086,-0.061,0.027,0.18,0.1625,0.2505,-0.213,-0.034
0.0775,-0.6355,-0.713,0.279,0.3955,-0.6745,-0.339,0.091,-0.0555,0.035,0.186,0.1655,0.247,-0.208,-0.0365
0.063,-0.6215,-0.6845,0.2795,0.374,-0.6535,-0.3385,0.1015,-0.039,0.0525,0.1975,0.175,0.2465,-0.192,-0.0335
0.0445,-0.621,-0.6655,0.2885,0.355,-0.6435,-0.3365,0.1015,-0.038,0.0595,0.1995,0.1795,0.246,-0.1985,-0.0335
0.0655,-0.6235,-0.689,0.2795,0.377,-0.6565,-0.3425,0.0885,-0.0455,0.0555,0.1965,0.179,0.253,-0.1995,-0.0345
0.0845,-0.6185,-0.7025,0.2675,0.3935,-0.661,-0.3575,0.079,-0.0495,0.058,0.197,0.182,0.256,-0.1875,-0.034
0.088,-0.6245,-0.7125,0.269,0.4,-0.669,-0.368,0.0645,-0.0695,0.0365,0.1835,0.178,0.2565,-0.1885,-0.023
0.081,-0.628,-0.709,0.2735,0.395,-0.669,-0.367,0.0585,-0.076,0.024,0.1765,0.171,0.2575,-0.1895,-0.0155
0.045,-0.6265,-0.6715,0.291,0.358,-0.6495,-0.3715,0.065,-0.0665,0.0325,0.185,0.178,0.26,-0.172,-0.0165
0.018,-0.6215,-0.6395,0.302,0.3285,-0.6305,-0.372,0.067,-0.064,0.033,0.194,0.1895,0.262,-0.167,-0.01
0.027,-0.612,-0.639,0.293,0.333,-0.626,-0.367,0.065,-0.065,0.035,0.2015,0.193,0.2625,-0.181,-0.01
0.041,-0.6095,-0.6505,0.2845,0.346,-0.63,-0.374,0.057,-0.0735,0.027,0.1995,0.189,0.2595,-0.171,-0.0045
0.089,-0.6055,-0.6945,0.2585,0.392,-0.6505,-0.3855,0.0445,-0.086,0.014,0.194,0.185,0.26,-0.177,-0.0035
0.103,-0.6085,-0.7115,0.253,0.407,-0.6605,-0.4045,0.035,-0.095,0.006,0.1905,0.1815,0.2575,-0.184,-0.0085
0.0725,-0.612,-0.6845,0.2695,0.3785,-0.6485,-0.394,0.0395,-0.0925,0.0085,0.195,0.1855,0.258,-0.1645,0.002
0.0695,-0.6055,-0.675,0.268,0.3725,-0.6405,-0.386,0.035,-0.095,0.0105,0.1945,0.1845,0.2565,-0.161,0.0035
0.0755,-0.6185,-0.6945,0.2715,0.385,-0.6565,-0.393,0.025,-0.1075,0.0035,0.187,0.174,0.2535,-0.17,0.0095
0.068,-0.6275,-0.696,0.28,0.382,-0.662,-0.387,0.0325,-0.1055,0.01,0.1965,0.1835,0.2555,-0.181,0.0085
0.043,-0.629,-0.672,0.2935,0.3575,-0.651,-0.3905,0.0315,-0.1025,0.017,0.201,0.189,0.2525,-0.1815,0.0065
0.0465,-0.6415,-0.688,0.2975,0.3675,-0.665,-0.3845,0.03,-0.108,0.0155,0.195,0.184,0.2545,-0.18,0.0115
0.0745,-0.632,-0.7065,0.279,0.3905,-0.6695,-0.3795,0.033,-0.1025,0.0215,0.1945,0.1865,0.257,-0.199,0.0045
0.0955,-0.633,-0.7285,0.2685,0.412,-0.681,-0.376,0.0235,-0.1065,0.0185,0.192,0.186,0.2605,-0.207,0.006
0.085,-0.644,-0.729,0.2795,0.407,-0.6865,-0.373,0.0225,-0.107,0.0125,0.1895,0.1885,0.265,-0.203,0.01
0.074,-0.6355,-0.71,0.281,0.392,-0.673,-0.383,0.019,-0.101,0.0135,0.1835,0.187,0.272,-0.1995,0.018
0.076,-0.639,-0.715,0.282,0.3955,-0.677,-0.3805,0.016,-0.103,0.0125,0.186,0.19,0.275,-0.196,0.0165
0.0785,-0.6535,-0.732,0.288,0.405,-0.693,-0.372,0.0175,-0.102,0.013,0.193,0.195,0.2725,-0.209,0.0165
0.0775,-0.6665,-0.744,0.2945,0.411,-0.7055,-0.369,0.015,-0.104,0.0115,0.1905,0.1915,0.269,-0.2105,0.0145
0.064,-0.68,-0.744,0.308,0.404,-0.7125,-0.354,0.0275,-0.095,0.0175,0.197,0.1985,0.2635,-0.217,0.0075
0.0735,-0.677,-0.7505,0.302,0.412,-0.7145,-0.349,0.036,-0.089,0.023,0.2025,0.2035,0.266,-0.2325,0.0175
0.09,-0.669,-0.759,0.2895,0.4245,-0.7145,-0.363,0.0305,-0.099,0.012,0.1905,0.1905,0.2625,-0.2305,0.022
0.077,-0.668,-0.7445,0.2955,0.411,-0.7065,-0.3565,0.036,-0.094,0.0115,0.189,0.1865,0.2565,-0.224,0.021
0.0705,-0.6695,-0.74,0.3,0.4055,-0.705,-0.354,0.0375,-0.093,0.01,0.188,0.184,0.253,-0.2245,0.0135
0.0765,-0.678,-0.7545,0.3005,0.4155,-0.7165,-0.353,0.0315,-0.1015,-0.0005,0.177,0.1695,0.2465,-0.23,0.0095
0.08,-0.6725,-0.7525,0.2965,0.4165,-0.713,-0.344,0.034,-0.1025,-0.004,0.1735,0.167,0.242,-0.232,0.008
0.0785,-0.664,-0.7425,0.293,0.411,-0.7035,-0.335,0.0365,-0.104,-0.006,0.1715,0.1645,0.236,-0.241,0.006
0.062,-0.6705,-0.7325,0.3045,0.3975,-0.7015,-0.34,0.034,-0.1105,-0.01,0.166,0.1605,0.238,-0.242,0.0065
0.054,-0.687,-0.741,0.3165,0.3975,-0.714,-0.34,0.0325,-0.11,-0.0125,0.1625,0.16,0.242,-0.245,0.007
0.046,-0.6975,-0.7435,0.3265,0.395,-0.721,-0.32,0.041,-0.105,-0.007,0.1685,0.164,0.239,-0.252,0.013
0.0235,-0.7185,-0.7415,0.348,0.3825,-0.73,-0.3375,0.0335,-0.1135,-0.014,0.16,0.1565,0.2405,-0.2505,0.015
0.016,-0.7295,-0.7455,0.357,0.3805,-0.738,-0.338,0.029,-0.1185,-0.02,0.153,0.15,0.24,-0.2435,0.0115
0.032,-0.7135,-0.7455,0.341,0.389,-0.7295,-0.319,0.039,-0.1105,-0.0115,0.162,0.1585,0.239,-0.248,0.008
0.0485,-0.698,-0.747,0.325,0.398,-0.723,-0.3265,0.037,-0.114,-0.0145,0.1635,0.1585,0.239,-0.25,0.0075
0.053,-0.6895,-0.743,0.3185,0.398,-0.7165,-0.329,0.027,-0.124,-0.021,0.1665,0.1635,0.245,-0.2355,0.0095
0.0575,-0.703,-0.7605,0.323,0.409,-0.732,-0.3305,0.0205,-0.1285,-0.0255,0.1555,0.156,0.2415,-0.2525,0.0125
0.0685,-0.711,-0.7795,0.3215,0.4245,-0.746,-0.331,0.0235,-0.125,-0.019,0.1555,0.1575,0.243,-0.259,0.0135
0.077,-0.708,-0.785,0.3155,0.431,-0.7465,-0.333,0.0245,-0.121,-0.0165,0.166,0.171,0.253,-0.249,0.0205
0.06,-0.716,-0.776,0.328,0.418,-0.746,-0.333,0.0245,-0.123,-0.022,0.1635,0.1645,0.2495,-0.2555,0.0205
0.0495,-0.713,-0.763,0.332,0.406,-0.738,-0.3255,0.0335,-0.1145,-0.0095,0.1725,0.1695,0.2495,-0.2535,0.0145
0.0715,-0.6995,-0.771,0.314,0.4215,-0.7355,-0.3135,0.041,-0.111,-0.0105,0.172,0.168,0.2435,-0.255,0.008
0.062,-0.6975,-0.76,0.318,0.411,-0.729,-0.2975,0.05,-0.1085,-0.013,0.1705,0.1625,0.236,-0.258,-0.002
0.0355,-0.7035,-0.739,0.334,0.3875,-0.7215,-0.291,0.0545,-0.1065,-0.0105,0.172,0.1605,0.2315,-0.2555,-0.001
0.025,-0.7115,-0.7365,0.3435,0.3805,-0.724,-0.284,0.0545,-0.111,-0.0135,0.168,0.1525,0.2235,-0.259,0.002
0.0015,-0.728,-0.7295,0.3635,0.3655,-0.729,-0.2745,0.063,-0.103,-0.0095,0.167,0.1545,0.2235,-0.261,-0.0045
-0.0045,-0.727,-0.7225,0.3665,0.359,-0.725,-0.2705,0.067,-0.0985,-0.0075,0.165,0.1505,0.22,-0.256,-0.0095
0.0045,-0.7085,-0.713,0.352,0.359,-0.711,-0.2645,0.071,-0.0925,-0.0025,0.166,0.1545,0.2135,-0.2565,-0.0185
-0.009,-0.715,-0.7065,0.3625,0.349,-0.711,-0.2625,0.072,-0.091,-0.0035,0.1685,0.16,0.215,-0.251,-0.019
-0.035,-0.7425,-0.7075,0.389,0.336,-0.725,-0.2665,0.0695,-0.094,-0.0045,0.1585,0.1465,0.2145,-0.245,-0.013
-0.054,-0.7475,-0.694,0.401,0.32,-0.721,-0.264,0.075,-0.089,-0.001,0.156,0.1445,0.2095,-0.242,-0.0275
-0.052,-0.746,-0.694,0.3995,0.321,-0.72,-0.2605,0.074,-0.092,-0.005,0.1575,0.145,0.209,-0.2495,-0.0295
-0.037,-0.746,-0.709,0.3915,0.336,-0.7275,-0.259,0.0705,-0.095,-0.009,0.1515,0.14,0.2075,-0.2555,-0.0235
-0.028,-0.7425,-0.7145,0.3855,0.343,-0.7285,-0.262,0.068,-0.096,-0.011,0.1495,0.1385,0.2075,-0.2575,-0.0225
-0.037,-0.7495,-0.7125,0.3935,0.338,-0.731,-0.262,0.067,-0.0995,-0.016,0.145,0.135,0.2095,-0.274,-0.0195
-0.0275,-0.7425,-0.715,0.385,0.3435,-0.729,-0.263,0.0655,-0.1005,-0.0165,0.144,0.1365,0.21,-0.2645,-0.02
-0.01,-0.7335,-0.7235,0.372,0.357,-0.729,-0.263,0.061,-0.105,-0.021,0.14,0.1325,0.206,-0.2575,-0.022
-0.013,-0.741,-0.728,0.377,0.3575,-0.7345,-0.261,0.0615,-0.106,-0.023,0.1385,0.13,0.207,-0.267,-0.022
-0.031,-0.7455,-0.7145,0.3885,0.342,-0.7305,-0.255,0.072,-0.098,-0.0135,0.1455,0.1365,0.2095,-0.2705,-0.021
-0.05,-0.748,-0.6985,0.3995,0.3245,-0.7235,-0.2495,0.079,-0.094,-0.0105,0.1485,0.139,0.204,-0.282,-0.0255
-0.0355,-0.7415,-0.7055,0.3885,0.335,-0.7235,-0.2495,0.081,-0.092,-0.0075,0.1525,0.1425,0.207,-0.285,-0.0205
-0.013,-0.7465,-0.7335,0.38,0.36,-0.74,-0.253,0.0725,-0.1005,-0.0145,0.1505,0.1415,0.2105,-0.2815,-0.017
0.006,-0.739,-0.745,0.3665,0.3755,-0.742,-0.2575,0.0675,-0.1025,-0.017,0.1505,0.1395,0.2105,-0.2705,-0.027
0.005,-0.7275,-0.7325,0.3615,0.3685,-0.73,-0.2515,0.0755,-0.0985,-0.0115,0.1535,0.139,0.2125,-0.2655,-0.0305
-0.0135,-0.744,-0.7305,0.379,0.3585,-0.7375,-0.2595,0.066,-0.108,-0.0205,0.146,0.131,0.215,-0.262,-0.029
-0.016,-0.7455,-0.7295,0.381,0.357,-0.738,-0.2625,0.061,-0.1105,-0.0225,0.145,0.129,0.218,-0.2565,-0.028
-0.0305,-0.7675,-0.737,0.3995,0.3535,-0.7525,-0.258,0.07,-0.106,-0.0175,0.149,0.1305,0.2215,-0.272,-0.0235
-0.034,-0.7915,-0.7575,0.413,0.362,-0.775,-0.247,0.0765,-0.098,-0.0105,0.156,0.139,0.2195,-0.2835,-0.0255
-0.014,-0.778,-0.7635,0.396,0.375,-0.771,-0.239,0.0755,-0.0955,-0.0085,0.1585,0.141,0.2125,-0.284,-0.0325
0.002,-0.7585,-0.7605,0.3785,0.3815,-0.7595,-0.25,0.0735,-0.0965,-0.008,0.158,0.1395,0.21,-0.2925,-0.0295
-0.0055,-0.7545,-0.7495,0.38,0.372,-0.752,-0.245,0.0765,-0.0905,-0.004,0.16,0.1385,0.206,-0.3015,-0.0275
-0.0265,-0.7565,-0.73,0.3915,0.352,-0.7435,-0.257,0.062,-0.1045,-0.0155,0.1455,0.1225,0.2055,-0.295,-0.031
-0.015,-0.728,-0.7125,0.372,0.3485,-0.7205,-0.26,0.0575,-0.112,-0.026,0.137,0.1145,0.2025,-0.281,-0.0345
0.004,-0.7045,-0.7085,0.3505,0.356,-0.7065,-0.266,0.0595,-0.1105,-0.0305,0.132,0.11,0.193,-0.27,-0.037
0.015,-0.705,-0.7195,0.345,0.3675,-0.7125,-0.271,0.063,-0.1095,-0.031,0.128,0.1055,0.19,-0.268,-0.036
0.015,-0.7145,-0.7295,0.35,0.372,-0.7225,-0.254,0.0705,-0.1035,-0.0285,0.1315,0.1125,0.1905,-0.2745,-0.036
-0.012,-0.7365,-0.7245,0.3745,0.3565,-0.731,-0.2595,0.0705,-0.1055,-0.028,0.131,0.111,0.1875,-0.2795,-0.0335
-0.0315,-0.7415,-0.7095,0.3865,0.339,-0.7255,-0.2575,0.079,-0.1005,-0.0215,0.138,0.115,0.1915,-0.276,-0.033
-0.017,-0.728,-0.7115,0.373,0.3475,-0.72,-0.263,0.074,-0.1045,-0.0265,0.138,0.118,0.1965,-0.2715,-0.0355
0.006,-0.725,-0.7315,0.36,0.3685,-0.7285,-0.2635,0.0665,-0.1125,-0.0335,0.131,0.1095,0.189,-0.2755,-0.031
-0.0145,-0.7415,-0.727,0.3785,0.3565,-0.7345,-0.249,0.0735,-0.1055,-0.0225,0.14,0.12,0.188,-0.288,-0.029
-0.033,-0.745,-0.712,0.3895,0.3395,-0.729,-0.2455,0.0805,-0.1005,-0.0125,0.1535,0.1365,0.1985,-0.2925,-0.0245
-0.032,-0.741,-0.7085,0.3865,0.338,-0.725,-0.2455,0.0805,-0.1045,-0.0165,0.151,0.133,0.2,-0.285,-0.022
-0.0255,-0.7465,-0.7215,0.3865,0.348,-0.734,-0.26,0.076,-0.109,-0.021,0.1475,0.129,0.2015,-0.2845,-0.0215
-0.008,-0.7465,-0.7385,0.3775,0.365,-0.7425,-0.266,0.0725,-0.111,-0.023,0.146,0.126,0.203,-0.2805,-0.0225
-0.0025,-0.739,-0.7365,0.371,0.367,-0.738,-0.261,0.0735,-0.1085,-0.021,0.1435,0.1225,0.198,-0.276,-0.0265
0.0055,-0.74,-0.745,0.3675,0.3755,-0.7425,-0.266,0.075,-0.104,-0.016,0.146,0.126,0.2025,-0.283,-0.021
-0.0145,-0.7465,-0.732,0.3805,0.359,-0.7395,-0.264,0.0775,-0.101,-0.0105,0.154,0.1345,0.2065,-0.28,-0.025
-0.03,-0.7525,-0.7225,0.3915,0.3465,-0.738,-0.261,0.0745,-0.1025,-0.012,0.1515,0.1325,0.205,-0.2845,-0.026
-0.0295,-0.7595,-0.73,0.395,0.35,-0.745,-0.2655,0.0665,-0.108,-0.0165,0.1435,0.1245,0.2,-0.292,-0.0225
-0.037,-0.763,-0.7265,0.4,0.345,-0.745,-0.267,0.067,-0.1075,-0.0145,0.1445,0.1275,0.198,-0.3005,-0.023
-0.039,-0.774,-0.7345,0.407,0.348,-0.7545,-0.264,0.0645,-0.1075,-0.015,0.139,0.126,0.1985,-0.2955,-0.019
-0.0255,-0.76,-0.7345,0.393,0.354,-0.7475,-0.2625,0.065,-0.1035,-0.0125,0.1445,0.136,0.2045,-0.2845,-0.0225
-0.0245,-0.754,-0.729,0.3895,0.3525,-0.7415,-0.2605,0.068,-0.0995,-0.0085,0.1515,0.1445,0.205,-0.294,-0.0225
-0.0245,-0.756,-0.7315,0.3905,0.3535,-0.744,-0.2595,0.0655,-0.1025,-0.011,0.1495,0.1435,0.205,-0.2895,-0.0225
0.0025,-0.7435,-0.746,0.3705,0.374,-0.745,-0.2685,0.0575,-0.1085,-0.0205,0.143,0.138,0.211,-0.295,-0.0255
-0.0115,-0.757,-0.7455,0.3845,0.367,-0.7515,-0.2775,0.0505,-0.1155,-0.027,0.1365,0.1285,0.2035,-0.3005,-0.0275
-0.023,-0.7575,-0.7345,0.3905,0.356,-0.7465,-0.2735,0.0585,-0.1095,-0.023,0.1425,0.1355,0.2055,-0.2915,-0.0275
-0.0165,-0.7535,-0.737,0.3855,0.36,-0.7455,-0.263,0.062,-0.1045,-0.022,0.144,0.14,0.21,-0.2935,-0.0215
-0.0355,-0.7585,-0.723,0.397,0.344,-0.741,-0.261,0.0645,-0.103,-0.021,0.1475,0.144,0.2085,-0.289,-0.0215
-0.038,-0.757,-0.719,0.398,0.3405,-0.7385,-0.261,0.0625,-0.104,-0.0205,0.1485,0.1465,0.211,-0.294,-0.022
-0.006,-0.7535,-0.7475,0.38,0.3705,-0.7505,-0.2645,0.0565,-0.1105,-0.023,0.147,0.1455,0.2115,-0.302,-0.024
0.002,-0.7515,-0.7535,0.375,0.378,-0.753,-0.265,0.062,-0.1075,-0.0265,0.147,0.1425,0.21,-0.296,-0.0235
-0.004,-0.7525,-0.7485,0.3785,0.372,-0.751,-0.258,0.066,-0.1055,-0.0285,0.1455,0.1395,0.2075,-0.2965,-0.021
0.0025,-0.74,-0.743,0.369,0.3725,-0.742,-0.2525,0.0715,-0.1035,-0.021,0.156,0.149,0.21,-0.2875,-0.0215
-0.0115,-0.7375,-0.726,0.375,0.3575,-0.732,-0.2505,0.0725,-0.1045,-0.0195,0.159,0.155,0.2145,-0.279,-0.023
-0.015,-0.7465,-0.7315,0.381,0.358,-0.739,-0.2565,0.0665,-0.1105,-0.0235,0.1565,0.154,0.215,-0.283,-0.022
-0.017,-0.756,-0.7385,0.3865,0.361,-0.7475,-0.259,0.0635,-0.1145,-0.025,0.1515,0.1445,0.212,-0.2915,-0.019
-0.023,-0.762,-0.7395,0.393,0.358,-0.751,-0.263,0.0575,-0.121,-0.029,0.1425,0.1315,0.2075,-0.2865,-0.0195
-0.0235,-0.7805,-0.7565,0.402,0.3665,-0.7685,-0.2715,0.052,-0.1235,-0.0265,0.141,0.1305,0.204,-0.2925,-0.022
-0.0135,-0.777,-0.763,0.3955,0.3745,-0.77,-0.271,0.053,-0.121,-0.0215,0.143,0.1345,0.201,-0.2985,-0.0245
0.0125,-0.74,-0.7525,0.364,0.3825,-0.7465,-0.255,0.063,-0.107,-0.01,0.1555,0.146,0.206,-0.2975,-0.0235
0.015,-0.734,-0.749,0.3595,0.382,-0.742,-0.2485,0.07,-0.094,-0.0025,0.1595,0.1485,0.208,-0.3085,-0.0215
-0.0075,-0.743,-0.736,0.3755,0.3645,-0.7395,-0.2555,0.072,-0.092,-0.0025,0.1575,0.1405,0.1945,-0.288,-0.0265
-0.008,-0.755,-0.747,0.382,0.3695,-0.7515,-0.256,0.0665,-0.0985,-0.0065,0.157,0.138,0.196,-0.303,-0.024
0.0115,-0.7545,-0.766,0.3715,0.389,-0.7605,-0.2685,0.057,-0.107,-0.014,0.151,0.1315,0.1985,-0.3105,-0.025
0.0025,-0.745,-0.7475,0.3715,0.375,-0.7465,-0.2705,0.059,-0.1025,-0.008,0.154,0.1255,0.1915,-0.296,-0.0305
-0.006,-0.748,-0.7425,0.377,0.368,-0.7455,-0.2555,0.0625,-0.098,-0.004,0.153,0.1185,0.1875,-0.3005,-0.0285
-0.005,-0.751,-0.7465,0.3785,0.3705,-0.749,-0.2625,0.0655,-0.098,-0.0065,0.15,0.115,0.1815,-0.2905,-0.032
-0.0065,-0.752,-0.7455,0.3795,0.3695,-0.749,-0.2595,0.064,-0.1015,-0.0105,0.1495,0.114,0.1805,-0.2915,-0.0305
-0.0015,-0.741,-0.7395,0.3715,0.369,-0.7405,-0.2535,0.067,-0.099,-0.0095,0.149,0.1125,0.1775,-0.297,-0.0315
-0.011,-0.729,-0.718,0.37,0.3535,-0.724,-0.2685,0.0625,-0.1025,-0.011,0.151,0.116,0.1815,-0.2945,-0.0335
0.0035,-0.697,-0.701,0.347,0.352,-0.699,-0.266,0.0625,-0.1045,-0.016,0.148,0.1205,0.1855,-0.2795,-0.028
0.018,-0.674,-0.692,0.328,0.355,-0.6835,-0.258,0.074,-0.0955,-0.01,0.149,0.1295,0.187,-0.2665,-0.0235
0.0045,-0.708,-0.713,0.352,0.3585,-0.711,-0.2615,0.0705,-0.0985,-0.011,0.1495,0.134,0.194,-0.2765,-0.0205
-0.017,-0.767,-0.75,0.3925,0.3665,-0.7585,-0.2635,0.0635,-0.1055,-0.019,0.136,0.124,0.193,-0.2945,-0.0215
-0.027,-0.789,-0.762,0.408,0.3675,-0.7755,-0.2635,0.061,-0.1095,-0.022,0.131,0.12,0.1925,-0.298,-0.027
-0.004,-0.766,-0.7615,0.3855,0.3785,-0.764,-0.2615,0.065,-0.1085,-0.02,0.137,0.1275,0.1945,-0.2955,-0.027
-0.0075,-0.7605,-0.753,0.384,0.3725,-0.757,-0.262,0.0625,-0.1095,-0.0215,0.1365,0.128,0.1935,-0.2945,-0.026
-0.0125,-0.75,-0.7375,0.3815,0.3625,-0.744,-0.2605,0.0635,-0.1065,-0.019,0.142,0.1315,0.1955,-0.292,-0.0255
-0.0025,-0.7365,-0.7335,0.3695,0.3655,-0.7355,-0.262,0.062,-0.106,-0.02,0.143,0.127,0.197,-0.289,-0.0245
-0.0025,-0.7455,-0.743,0.374,0.37,-0.7445,-0.269,0.0575,-0.11,-0.0245,0.14,0.12,0.1945,-0.294,-0.0275
-0.0065,-0.7535,-0.747,0.3805,0.3705,-0.7505,-0.2615,0.06,-0.108,-0.0215,0.1495,0.1295,0.1945,-0.2975,-0.026
-0.016,-0.767,-0.751,0.392,0.3675,-0.759,-0.257,0.062,-0.108,-0.0225,0.15,0.128,0.194,-0.2915,-0.023
-0.037,-0.771,-0.734,0.404,0.3485,-0.753,-0.2535,0.073,-0.0955,-0.013,0.1525,0.131,0.191,-0.297,-0.0265
-0.0445,-0.761,-0.7165,0.403,0.336,-0.739,-0.2435,0.0715,-0.0925,-0.0045,0.16,0.143,0.19,-0.3,-0.028
-0.001,-0.747,-0.746,0.374,0.3725,-0.7465,-0.259,0.0665,-0.1,-0.008,0.1565,0.1405,0.192,-0.298,-0.0255
0.018,-0.7465,-0.765,0.3645,0.3915,-0.756,-0.267,0.0655,-0.104,-0.0165,0.146,0.136,0.1915,-0.308,-0.022
-0.0005,-0.7615,-0.761,0.3815,0.38,-0.7615,-0.256,0.0655,-0.103,-0.016,0.1465,0.1415,0.193,-0.317,-0.023
-0.0035,-0.7535,-0.7505,0.3785,0.3735,-0.752,-0.2655,0.0595,-0.1065,-0.016,0.141,0.1425,0.1995,-0.3015,-0.0225
-0.0045,-0.736,-0.732,0.3705,0.3635,-0.734,-0.2715,0.047,-0.1185,-0.029,0.1355,0.1425,0.204,-0.281,-0.0185
-0.0085,-0.7375,-0.729,0.373,0.3605,-0.7335,-0.2625,0.0535,-0.112,-0.0245,0.1495,0.154,0.208,-0.273,-0.022
-0.007,-0.74,-0.733,0.3735,0.363,-0.7365,-0.269,0.052,-0.112,-0.0265,0.1365,0.1365,0.1985,-0.278,-0.0245
0.004,-0.7375,-0.741,0.367,0.3725,-0.7395,-0.2675,0.055,-0.1105,-0.0255,0.1315,0.121,0.1875,-0.2825,-0.027
0.0,-0.74,-0.74,0.37,0.37,-0.74,-0.257,0.0625,-0.111,-0.026,0.133,0.1225,0.1845,-0.2705,-0.027
-0.0285,-0.745,-0.7165,0.387,0.344,-0.731,-0.248,0.064,-0.112,-0.0285,0.1305,0.12,0.181,-0.278,-0.0255
-0.043,-0.7525,-0.7095,0.398,0.3335,-0.731,-0.239,0.081,-0.0945,-0.013,0.1455,0.132,0.186,-0.2905,-0.0255
-0.042,-0.756,-0.7135,0.399,0.336,-0.735,-0.2415,0.0905,-0.089,-0.006,0.1485,0.133,0.1845,-0.2915,-0.021
-0.0235,-0.7515,-0.7275,0.3875,0.352,-0.7395,-0.246,0.078,-0.1045,-0.0175,0.1365,0.118,0.1785,-0.289,-0.025
-0.011,-0.754,-0.743,0.383,0.366,-0.749,-0.258,0.07,-0.1145,-0.0255,0.128,0.11,0.1785,-0.292,-0.026
-0.016,-0.761,-0.7455,0.389,0.3645,-0.7535,-0.2615,0.0645,-0.1205,-0.0295,0.1255,0.1055,0.1765,-0.298,-0.0205
-0.002,-0.7565,-0.7545,0.3795,0.3765,-0.756,-0.2665,0.0565,-0.129,-0.033,0.1215,0.103,0.1735,-0.2965,-0.0255
-0.013,-0.7615,-0.7485,0.3875,0.3675,-0.755,-0.268,0.063,-0.1215,-0.026,0.1265,0.1095,0.1735,-0.293,-0.0255
-0.025,-0.766,-0.741,0.3955,0.358,-0.7535,-0.262,0.063,-0.118,-0.0255,0.128,0.114,0.174,-0.296,-0.0265
-0.017,-0.758,-0.741,0.388,0.362,-0.7495,-0.2615,0.058,-0.12,-0.026,0.127,0.1155,0.175,-0.306,-0.026
-0.009,-0.753,-0.744,0.3815,0.3675,-0.7485,-0.2645,0.057,-0.1175,-0.022,0.13,0.1215,0.177,-0.2965,-0.0265
0.02,-0.7325,-0.752,0.3565,0.386,-0.7425,-0.2635,0.058,-0.111,-0.017,0.135,0.13,0.1815,-0.2925,-0.03
0.0175,-0.7305,-0.748,0.357,0.3825,-0.7395,-0.2555,0.0665,-0.1035,-0.0115,0.142,0.1355,0.185,-0.3025,-0.026
0.0045,-0.7505,-0.755,0.3735,0.38,-0.753,-0.261,0.0665,-0.102,-0.015,0.1435,0.14,0.1915,-0.298,-0.024
-0.0015,-0.754,-0.753,0.378,0.376,-0.7535,-0.262,0.0645,-0.105,-0.0225,0.141,0.1375,0.1915,-0.2945,-0.0215
-0.014,-0.7555,-0.742,0.385,0.364,-0.749,-0.266,0.072,-0.103,-0.021,0.145,0.1395,0.195,-0.294,-0.0235
-0.018,-0.759,-0.7405,0.389,0.361,-0.75,-0.2635,0.0775,-0.0975,-0.0185,0.153,0.149,0.203,-0.296,-0.0205
-0.0135,-0.757,-0.7435,0.3855,0.365,-0.7505,-0.262,0.0735,-0.103,-0.0255,0.146,0.1445,0.2025,-0.294,-0.0155
-0.015,-0.7605,-0.746,0.388,0.3655,-0.7535,-0.2695,0.0655,-0.112,-0.0345,0.1395,0.139,0.207,-0.2945,-0.018
-0.015,-0.761,-0.746,0.388,0.3655,-0.754,-0.27,0.065,-0.113,-0.0365,0.142,0.138,0.208,-0.2975,-0.02
0.014,-0.739,-0.753,0.3625,0.3835,-0.7465,-0.27,0.0725,-0.106,-0.026,0.1535,0.151,0.2085,-0.287,-0.026
-0.0005,-0.754,-0.7535,0.3775,0.3765,-0.754,-0.263,0.075,-0.106,-0.022,0.1585,0.158,0.2105,-0.292,-0.0225
-0.0275,-0.785,-0.7575,0.4065,0.365,-0.7715,-0.2735,0.0675,-0.114,-0.0285,0.147,0.1475,0.213,-0.3005,-0.0185
-0.0205,-0.778,-0.757,0.3995,0.368,-0.768,-0.2755,0.068,-0.1085,-0.021,0.1505,0.1495,0.217,-0.295,-0.022
-0.0125,-0.765,-0.753,0.389,0.3705,-0.759,-0.2605,0.078,-0.0975,-0.007,0.164,0.163,0.222,-0.287,-0.0205
-0.0065,-0.7685,-0.762,0.3875,0.378,-0.7655,-0.266,0.0745,-0.1015,-0.01,0.1625,0.1625,0.2225,-0.289,-0.0175
0.0005,-0.7695,-0.77,0.385,0.385,-0.77,-0.2705,0.07,-0.103,-0.012,0.1585,0.1585,0.222,-0.299,-0.0195
0.0055,-0.764,-0.7695,0.3795,0.3875,-0.767,-0.2675,0.078,-0.0935,-0.007,0.1645,0.1655,0.226,-0.3085,-0.0185
-0.0195,-0.7825,-0.763,0.4015,0.372,-0.773,-0.2705,0.073,-0.0955,-0.0125,0.163,0.1615,0.2255,-0.315,-0.013
-0.0405,-0.793,-0.753,0.417,0.3565,-0.773,-0.269,0.0685,-0.097,-0.013,0.1585,0.1545,0.22,-0.309,-0.0155
-0.024,-0.78,-0.756,0.402,0.366,-0.768,-0.259,0.073,-0.0935,-0.0115,0.158,0.15,0.2115,-0.306,-0.0175
-0.0165,-0.7605,-0.744,0.389,0.3635,-0.7525,-0.2535,0.08,-0.0885,-0.004,0.1645,0.157,0.2085,-0.3095,-0.0155
-0.029,-0.7555,-0.727,0.3925,0.349,-0.7415,-0.258,0.085,-0.0845,-0.001,0.1655,0.158,0.2065,-0.302,-0.0205
-0.022,-0.7635,-0.7415,0.393,0.36,-0.7525,-0.2575,0.0825,-0.0865,-0.008,0.1585,0.151,0.205,-0.3,-0.0195
-0.0155,-0.7595,-0.744,0.388,0.3645,-0.752,-0.2585,0.085,-0.086,-0.0085,0.158,0.151,0.2035,-0.298,-0.0175
-0.026,-0.764,-0.738,0.395,0.356,-0.751,-0.265,0.082,-0.09,-0.01,0.1575,0.1485,0.1995,-0.2955,-0.0225
-0.034,-0.7675,-0.733,0.401,0.3495,-0.7505,-0.2585,0.0805,-0.0905,-0.0055,0.1645,0.154,0.2055,-0.3025,-0.0195
-0.0285,-0.761,-0.7325,0.395,0.352,-0.747,-0.258,0.083,-0.093,-0.006,0.166,0.1565,0.2085,-0.297,-0.022
-0.004,-0.7505,-0.7465,0.3775,0.371,-0.749,-0.258,0.084,-0.093,-0.008,0.1625,0.154,0.2085,-0.2935,-0.0245
-0.0055,-0.755,-0.75,0.3805,0.3725,-0.753,-0.263,0.0785,-0.099,-0.014,0.157,0.145,0.2045,-0.2945,-0.0225
-0.018,-0.763,-0.745,0.391,0.3635,-0.754,-0.265,0.0805,-0.099,-0.0135,0.1585,0.1435,0.205,-0.292,-0.022
-0.022,-0.7615,-0.7395,0.392,0.3585,-0.751,-0.2485,0.092,-0.09,-0.004,0.163,0.146,0.204,-0.292,-0.0305
-0.023,-0.7585,-0.7355,0.3915,0.356,-0.7475,-0.2485,0.089,-0.096,-0.0075,0.1575,0.1395,0.1945,-0.2895,-0.036
-0.0135,-0.752,-0.7385,0.383,0.3625,-0.7455,-0.2495,0.088,-0.096,-0.0055,0.156,0.136,0.1955,-0.2925,-0.0315
-0.0075,-0.758,-0.7505,0.383,0.3715,-0.7545,-0.251,0.092,-0.092,-0.0035,0.154,0.13,0.1925,-0.301,-0.0315
0.0035,-0.7655,-0.769,0.3815,0.3865,-0.7675,-0.2485,0.0975,-0.0865,0.0,0.1525,0.126,0.189,-0.299,-0.0255
0.0,-0.767,-0.767,0.3835,0.3835,-0.7675,-0.244,0.1025,-0.0835,-0.005,0.1435,0.117,0.1865,-0.305,-0.03
-0.006,-0.774,-0.768,0.39,0.3815,-0.7715,-0.237,0.1145,-0.0725,-0.0055,0.138,0.113,0.1825,-0.3095,-0.037
0.0015,-0.771,-0.7725,0.385,0.387,-0.772,-0.2225,0.132,-0.0565,-0.002,0.131,0.1095,0.176,-0.3115,-0.038
-0.021,-0.774,-0.753,0.398,0.366,-0.764,-0.2215,0.14,-0.0545,-0.016,0.102,0.084,0.1625,-0.3195,-0.0415
-0.05,-0.7825,-0.733,0.4165,0.3415,-0.758,-0.2175,0.1535,-0.0505,-0.032,0.0705,0.054,0.151,-0.303,-0.045
-0.0385,-0.779,-0.7405,0.409,0.351,-0.76,-0.2035,0.1815,-0.0255,-0.0255,0.062,0.0465,0.1515,-0.304,-0.0515
-0.054,-0.814,-0.76,0.434,0.353,-0.787,-0.1635,0.2365,0.02,-0.006,0.067,0.0545,0.15,-0.3375,-0.0545
-0.067,-0.8495,-0.782,0.4585,0.3575,-0.816,-0.13,0.2915,0.0565,-0.0055,0.054,0.0405,0.1385,-0.3695,-0.061
-0.049,-0.852,-0.803,0.4505,0.377,-0.828,-0.1085,0.3335,0.082,-0.009,0.035,0.0185,0.127,-0.395,-0.069
-0.069,-0.876,-0.807,0.473,0.369,-0.842,-0.0755,0.3835,0.109,-0.018,0.003,-0.0115,0.1105,-0.408,-0.0735
-0.088,-0.906,-0.818,0.4975,0.365,-0.862,-0.0475,0.4265,0.13,-0.04,-0.0365,-0.052,0.089,-0.422,-0.084
-0.076,-0.928,-0.852,0.5025,0.388,-0.8905,-0.016,0.4745,0.1605,-0.048,-0.061,-0.077,0.0725,-0.458,-0.0905
-0.0545,-0.956,-0.902,0.5055,0.424,-0.929,0.0135,0.5235,0.197,-0.0425,-0.086,-0.1035,0.0565,-0.487,-0.101
-0.0765,-0.981,-0.904,0.529,0.414,-0.943,0.0355,0.5615,0.2245,-0.036,-0.1045,-0.1275,0.037,-0.492,-0.1115
-0.1185,-0.987,-0.8685,0.5535,0.375,-0.928,0.065,0.612,0.2685,-0.0125,-0.1035,-0.1345,0.028,-0.488,-0.1185
-0.1195,-0.9905,-0.871,0.5555,0.376,-0.931,0.088,0.658,0.31,0.011,-0.1095,-0.1455,0.017,-0.501,-0.1365
-0.116,-1.013,-0.897,0.5645,0.3905,-0.955,0.107,0.7065,0.355,0.034,-0.1165,-0.1585,0.013,-0.5305,-0.147
-0.1135,-1.02,-0.9065,0.567,0.3965,-0.9635,0.142,0.7675,0.4115,0.066,-0.1185,-0.1695,0.002,-0.532,-0.17
-0.119,-1.008,-0.8885,0.5635,0.3845,-0.9485,0.1705,0.8195,0.4595,0.1,-0.1145,-0.177,-0.0115,-0.525,-0.2005
-0.1535,-1.0115,-0.8575,0.5825,0.352,-0.9345,0.193,0.8575,0.4895,0.12,-0.117,-0.187,-0.022,-0.528,-0.221
-0.161,-1.01,-0.849,0.5855,0.344,-0.93,0.2095,0.8745,0.497,0.117,-0.1405,-0.211,-0.041,-0.5255,-0.239
-0.164,-1.004,-0.8395,0.5845,0.3375,-0.922,0.2305,0.895,0.508,0.117,-0.16,-0.233,-0.0625,-0.5115,-0.2575
-0.171,-0.9965,-0.8255,0.584,0.327,-0.911,0.2485,0.916,0.512,0.1065,-0.182,-0.255,-0.0855,-0.4995,-0.2775
-0.1625,-0.991,-0.8285,0.577,0.333,-0.91,0.252,0.934,0.516,0.0945,-0.2075,-0.279,-0.098,-0.5025,-0.2935
-0.181,-0.9995,-0.8185,0.5905,0.3185,-0.909,0.285,0.9825,0.54,0.0865,-0.2405,-0.3085,-0.122,-0.5075,-0.3235
-0.182,-0.9905,-0.809,0.5865,0.3135,-0.9,0.317,1.0365,0.57,0.089,-0.261,-0.328,-0.1405,-0.5085,-0.354
-0.1775,-0.9845,-0.8075,0.581,0.315,-0.896,0.343,1.0795,0.604,0.112,-0.253,-0.3235,-0.1355,-0.5085,-0.3805
-0.177,-0.982,-0.805,0.5795,0.314,-0.8935,0.366,1.113,0.6305,0.133,-0.239,-0.3135,-0.13,-0.506,-0.3985
-0.149,-0.9645,-0.8155,0.557,0.333,-0.8905,0.351,1.1225,0.6415,0.148,-0.229,-0.3085,-0.118,-0.499,-0.4065
-0.1215,-0.953,-0.8315,0.5375,0.355,-0.8925,0.3485,1.1425,0.663,0.1685,-0.2185,-0.302,-0.099,-0.493,-0.426
-0.109,-0.9295,-0.821,0.5195,0.356,-0.8755,0.3715,1.1845,0.698,0.2005,-0.195,-0.2845,-0.0935,-0.4855,-0.445
-0.1125,-0.9205,-0.808,0.5165,0.348,-0.8645,0.4075,1.2505,0.7575,0.243,-0.17,-0.2715,-0.0885,-0.4775,-0.4715
-0.117,-0.934,-0.817,0.5255,0.35,-0.876,0.43,1.304,0.8065,0.277,-0.151,-0.261,-0.066,-0.4795,-0.4975
-0.085,-0.923,-0.838,0.504,0.3765,-0.881,0.4405,1.339,0.84,0.3085,-0.1255,-0.243,-0.04,-0.483,-0.52
-0.0415,-0.9115,-0.8695,0.4765,0.414,-0.891,0.46,1.373,0.8755,0.3465,-0.099,-0.2265,-0.0175,-0.4835,-0.533
-0.0105,-0.9095,-0.899,0.46,0.444,-0.9045,0.449,1.37,0.8815,0.372,-0.0725,-0.205,0.012,-0.483,-0.543
0.0035,-0.9225,-0.926,0.46,0.4645,-0.9245,0.4455,1.372,0.8895,0.382,-0.062,-0.2,0.033,-0.4885,-0.5585
0.0425,-0.921,-0.9635,0.4395,0.503,-0.9425,0.443,1.3795,0.9015,0.3985,-0.0405,-0.1835,0.0575,-0.5055,-0.552
0.109,-0.891,-1.0,0.391,0.5545,-0.946,0.427,1.376,0.9145,0.426,-0.005,-0.15,0.0935,-0.517,-0.5445
0.1315,-0.8715,-1.003,0.37,0.5675,-0.9375,0.38,1.315,0.888,0.4395,0.026,-0.121,0.123,-0.5025,-0.5365
0.1765,-0.8385,-1.0155,0.331,0.596,-0.927,0.312,1.2435,0.868,0.48,0.0875,-0.0655,0.1815,-0.483,-0.5205
0.224,-0.822,-1.0465,0.299,0.636,-0.9345,0.297,1.258,0.936,0.5775,0.168,-0.0085,0.247,-0.4835,-0.527
0.2865,-0.813,-1.1005,0.263,0.6935,-0.957,0.2655,1.264,1.0245,0.7265,0.297,0.0725,0.3375,-0.4885,-0.5435
0.345,-0.782,-1.128,0.2185,0.737,-0.9555,0.2165,1.238,1.081,0.849,0.4165,0.158,0.4255,-0.4785,-0.5515
0.401,-0.756,-1.1575,0.1775,0.7795,-0.957,0.154,1.188,1.1065,0.953,0.5385,0.2555,0.52,-0.462,-0.53
0.4975,-0.7275,-1.2255,0.115,0.862,-0.977,0.0845,1.131,1.131,1.0735,0.6815,0.361,0.637,-0.4545,-0.505
0.563,-0.6895,-1.253,0.0635,0.908,-0.9715,0.008,1.071,1.168,1.2005,0.825,0.468,0.753,-0.431,-0.4895
0.652,-0.6425,-1.295,-0.005,0.974,-0.969,-0.1255,0.9605,1.189,1.354,1.018,0.619,0.9005,-0.395,-0.4615
0.7495,-0.5785,-1.328,-0.0855,1.039,-0.9535,-0.2615,0.832,1.2055,1.5175,1.232,0.789,1.055,-0.3465,-0.4385
0.8095,-0.507,-1.3175,-0.151,1.064,-0.9125,-0.4025,0.6865,1.222,1.7045,1.47,0.976,1.2185,-0.2875,-0.403
0.8815,-0.4155,-1.2975,-0.233,1.09,-0.8565,-0.563,0.4925,1.1825,1.8385,1.6705,1.134,1.356,-0.219,-0.3625
0.9575,-0.2885,-1.2465,-0.334,1.1025,-0.768,-0.7355,0.2655,1.1375,1.977,1.8795,1.3035,1.4965,-0.1095,-0.3295
0.9785,-0.206,-1.185,-0.386,1.082,-0.6955,-0.885,0.0445,1.095,2.11,2.082,1.4715,1.6245,-0.0175,-0.3025
1.0205,-0.14,-1.1605,-0.4395,1.0905,-0.6505,-1.011,-0.15,1.0545,2.221,2.2485,1.6105,1.7215,0.0485,-0.2735
1.0535,-0.043,-1.097,-0.5045,1.0755,-0.5705,-1.1255,-0.345,0.9895,2.2935,2.3785,1.7265,1.791,0.1185,-0.2425
1.0395,0.007,-1.033,-0.523,1.0365,-0.5135,-1.233,-0.527,0.912,2.3275,2.464,1.8045,1.8355,0.1625,-0.2215
1.0715,0.081,-0.991,-0.5755,1.031,-0.455,-1.361,-0.739,0.8075,2.348,2.553,1.8945,1.8845,0.243,-0.19
1.0665,0.1775,-0.8895,-0.6215,0.978,-0.356,-1.4765,-1.0035,0.602,2.249,2.5685,1.9515,1.8875,0.3475,-0.138
0.997,0.2395,-0.7575,-0.6175,0.8775,-0.2595,-1.5575,-1.2435,0.3705,2.0935,2.5335,1.978,1.859,0.428,-0.071
0.9285,0.3335,-0.5955,-0.6305,0.762,-0.131,-1.627,-1.514,0.0375,1.8285,2.424,1.9635,1.7835,0.541,0.009
0.88,0.4295,-0.4505,-0.6545,0.6655,-0.0105,-1.6885,-1.7705,-0.281,1.5735,2.2965,1.925,1.6915,0.6525,0.0695
0.831,0.5025,-0.3285,-0.6665,0.58,0.087,-1.749,-1.9675,-0.507,1.425,2.239,1.9295,1.6415,0.7385,0.118
0.772,0.5625,-0.2095,-0.667,0.491,0.1765,-1.7985,-2.149,-0.7575,1.244,2.1785,1.9425,1.598,0.806,0.1745
0.738,0.616,-0.1225,-0.677,0.4305,0.247,-1.8475,-2.3165,-0.9985,1.0575,2.0965,1.9355,1.547,0.859,0.2365
0.692,0.653,-0.039,-0.672,0.3655,0.3065,-1.897,-2.536,-1.38,0.7055,1.9325,1.882,1.456,0.914,0.344
0.5655,0.6925,0.127,-0.629,0.2195,0.4095,-1.931,-2.8255,-2.0115,0.0145,1.589,1.748,1.246,0.9735,0.5
0.442,0.7735,0.331,-0.6075,0.0555,0.552,-1.9775,-3.0925,-2.6265,-0.7155,1.2035,1.598,1.0065,1.0585,0.647
0.359,0.8405,0.481,-0.5995,-0.0605,0.6605,-2.008,-3.246,-3.0305,-1.2255,0.93,1.4985,0.8435,1.137,0.7395
0.2825,0.8915,0.609,-0.5865,-0.1625,0.75,-2.0315,-3.33,-3.3075,-1.647,0.699,1.4225,0.7165,1.2165,0.808
0.22,0.9605,0.74,-0.59,-0.2595,0.85,-2.079,-3.429,-3.5895,-2.1265,0.442,1.3465,0.583,1.3055,0.8925
0.1995,1.0145,0.8145,-0.6065,-0.307,0.914,-2.1415,-3.518,-3.8095,-2.476,0.2605,1.292,0.497,1.3615,0.9765
0.2075,1.0535,0.8455,-0.6305,-0.3185,0.949,-2.1865,-3.5625,-3.919,-2.62,0.2095,1.299,0.49,1.405,1.0305
0.2315,1.09,0.858,-0.6605,-0.313,0.974,-2.226,-3.585,-3.9875,-2.717,0.1875,1.33,0.506,1.442,1.0755
0.2755,1.131,0.855,-0.703,-0.2895,0.993,-2.2735,-3.5895,-3.983,-2.7205,0.205,1.37,0.544,1.4705,1.1115
0.29,1.159,0.868,-0.724,-0.2885,1.0135,-2.3105,-3.5935,-3.9625,-2.703,0.2135,1.3925,0.558,1.484,1.1315
0.278,1.18,0.9015,-0.729,-0.311,1.0405,-2.332,-3.568,-3.903,-2.667,0.212,1.395,0.5475,1.5105,1.125
0.22,1.2025,0.9815,-0.711,-0.38,1.0915,-2.321,-3.4965,-3.8025,-2.606,0.2065,1.383,0.5185,1.555,1.071
0.174,1.172,0.9975,-0.673,-0.4115,1.0845,-2.3035,-3.427,-3.732,-2.599,0.152,1.336,0.4755,1.5645,1.049
0.159,1.13,0.9705,-0.644,-0.4055,1.05,-2.255,-3.3235,-3.623,-2.548,0.124,1.3025,0.453,1.5465,1.0315
0.1175,1.118,1.001,-0.6175,-0.4415,1.059,-2.1745,-3.1905,-3.4845,-2.468,0.1075,1.2725,0.417,1.536,0.9805
0.09,1.0865,0.996,-0.588,-0.4525,1.041,-2.086,-3.041,-3.331,-2.388,0.075,1.2245,0.38,1.5305,0.9465
0.084,1.028,0.944,-0.5555,-0.4295,0.9855,-2.027,-2.9085,-3.1985,-2.3305,0.0145,1.162,0.3435,1.491,0.9385
0.051,0.9565,0.905,-0.5035,-0.4265,0.9305,-1.98,-2.8005,-3.0955,-2.2975,-0.053,1.0935,0.297,1.4275,0.9395
0.018,0.8375,0.8195,-0.427,-0.401,0.8285,-1.893,-2.646,-2.9295,-2.1925,-0.081,1.032,0.2765,1.331,0.9275
0.027,0.717,0.69,-0.3715,-0.3315,0.703,-1.8005,-2.4715,-2.727,-2.04,-0.0565,1.0015,0.2915,1.2235,0.9025
0.054,0.6185,0.565,-0.3355,-0.255,0.5915,-1.7275,-2.32,-2.561,-1.926,-0.06,0.957,0.294,1.1315,0.894
0.0565,0.494,0.4375,-0.275,-0.19,0.4655,-1.6775,-2.204,-2.444,-1.8625,-0.117,0.87,0.2655,1.028,0.892
0.041,0.3825,0.342,-0.2115,-0.15,0.362,-1.6055,-2.0875,-2.3305,-1.7955,-0.1615,0.7865,0.233,0.9315,0.8815
0.0325,0.3075,0.2745,-0.17,-0.121,0.2905,-1.5205,-1.9615,-2.204,-1.7125,-0.1785,0.7245,0.207,0.8695,0.8625
0.024,0.2245,0.2,-0.124,-0.0875,0.212,-1.45,-1.851,-2.0905,-1.6435,-0.2075,0.6555,0.175,0.798,0.844
0.015,0.14,0.125,-0.0775,-0.0545,0.132,-1.3915,-1.7565,-1.998,-1.593,-0.258,0.571,0.135,0.7225,0.8365
-0.001,0.073,0.0735,-0.0355,-0.0365,0.073,-1.3415,-1.6755,-1.9175,-1.5385,-0.273,0.521,0.1155,0.6675,0.825
-0.015,0.0015,0.016,0.007,-0.015,0.0085,-1.293,-1.592,-1.8305,-1.474,-0.271,0.4905,0.116,0.609,0.8205
-0.047,-0.0875,-0.0405,0.0675,-0.0035,-0.064,-1.239,-1.507,-1.7455,-1.4135,-0.2805,0.443,0.102,0.5385,0.812
-0.0575,-0.1675,-0.11,0.113,0.0265,-0.139,-1.1865,-1.423,-1.6685,-1.3665,-0.2985,0.3895,0.081,0.4645,0.808
-0.0255,-0.228,-0.2025,0.127,0.0885,-0.2155,-1.153,-1.3585,-1.6025,-1.32,-0.296,0.367,0.0935,0.4205,0.809
-0.01,-0.277,-0.267,0.1435,0.1285,-0.272,-1.119,-1.2995,-1.544,-1.269,-0.279,0.3615,0.1105,0.374,0.8015
-0.0075,-0.322,-0.315,0.165,0.154,-0.3185,-1.0765,-1.2325,-1.477,-1.217,-0.2765,0.3315,0.1065,0.314,0.787
-0.008,-0.3635,-0.3555,0.186,0.1735,-0.3595,-1.026,-1.157,-1.399,-1.152,-0.2735,0.296,0.0965,0.2695,0.7505
-0.034,-0.3935,-0.359,0.214,0.1625,-0.3765,-0.9875,-1.1015,-1.349,-1.1215,-0.301,0.2415,0.0615,0.2445,0.7255
-0.076,-0.428,-0.3525,0.2525,0.138,-0.3905,-0.952,-1.0575,-1.308,-1.101,-0.3315,0.183,0.0245,0.223,0.7065
-0.0915,-0.463,-0.3715,0.2775,0.14,-0.4175,-0.91,-0.995,-1.2495,-1.0555,-0.3345,0.15,0.005,0.1925,0.6785
-0.102,-0.48,-0.3775,0.291,0.138,-0.429,-0.8825,-0.948,-1.199,-1.0145,-0.326,0.1335,-0.0035,0.1725,0.6475
-0.1105,-0.4925,-0.382,0.3015,0.136,-0.4375,-0.851,-0.8995,-1.149,-0.9735,-0.316,0.121,-0.0075,0.1515,0.6215
-0.1085,-0.501,-0.3925,0.305,0.142,-0.447,-0.828,-0.8605,-1.1085,-0.9455,-0.321,0.0995,-0.017,0.1265,0.6035
-0.112,-0.498,-0.386,0.305,0.137,-0.442,-0.803,-0.8225,-1.067,-0.9135,-0.315,0.0855,-0.0195,0.12,0.576
-0.115,-0.511,-0.396,0.313,0.1405,-0.454,-0.7635,-0.7705,-1.0135,-0.876,-0.313,0.063,-0.031,0.109,0.5515
-0.123,-0.54,-0.417,0.332,0.147,-0.479,-0.72,-0.702,-0.9405,-0.8235,-0.3095,0.0325,-0.0475,0.0795,0.517
-0.1335,-0.57,-0.4365,0.352,0.1515,-0.5035,-0.6785,-0.63,-0.867,-0.7675,-0.298,0.011,-0.051,0.054,0.478
-0.1325,-0.5865,-0.454,0.3595,0.1605,-0.5205,-0.651,-0.583,-0.8185,-0.7295,-0.287,0.002,-0.05,0.039,0.451
-0.1285,-0.5865,-0.458,0.358,0.1645,-0.5225,-0.6225,-0.5365,-0.7745,-0.6935,-0.2705,-0.002,-0.051,0.03,0.427
-0.133,-0.594,-0.461,0.364,0.164,-0.528,-0.596,-0.4925,-0.7335,-0.6645,-0.2645,-0.0175,-0.055,0.0075,0.395
-0.14,-0.628,-0.488,0.384,0.174,-0.558,-0.562,-0.442,-0.6845,-0.6275,-0.2555,-0.033,-0.0495,-0.0355,0.364
-0.132,-0.6635,-0.5315,0.398,0.2,-0.5975,-0.533,-0.399,-0.6425,-0.592,-0.242,-0.042,-0.0435,-0.0615,0.341
-0.1245,-0.687,-0.5625,0.406,0.219,-0.625,-0.5105,-0.364,-0.6055,-0.559,-0.2265,-0.043,-0.042,-0.078,0.312
-0.136,-0.713,-0.577,0.4245,0.2205,-0.645,-0.4865,-0.3175,-0.5585,-0.5185,-0.2055,-0.041,-0.0375,-0.113,0.2835
-0.1665,-0.7365,-0.57,0.4515,0.202,-0.6535,-0.4525,-0.27,-0.5135,-0.4795,-0.184,-0.038,-0.0345,-0.1385,0.26
-0.1775,-0.763,-0.5855,0.4705,0.204,-0.6745,-0.416,-0.2215,-0.4685,-0.4455,-0.1735,-0.0455,-0.031,-0.1685,0.233
-0.168,-0.791,-0.6225,0.48,0.2275,-0.707,-0.3905,-0.1785,-0.424,-0.4035,-0.157,-0.0495,-0.0245,-0.206,0.205
-0.161,-0.817,-0.656,0.489,0.2475,-0.7365,-0.3585,-0.137,-0.3815,-0.364,-0.139,-0.047,-0.0165,-0.239,0.1765
-0.1315,-0.8285,-0.697,0.48,0.2825,-0.763,-0.3435,-0.1045,-0.3515,-0.339,-0.1255,-0.0475,-0.004,-0.2625,0.15
-0.148,-0.8505,-0.7025,0.4995,0.2775,-0.777,-0.3375,-0.085,-0.3285,-0.314,-0.111,-0.0425,0.0075,-0.284,0.1275
-0.1565,-0.8555,-0.6995,0.5065,0.2715,-0.778,-0.324,-0.0645,-0.307,-0.298,-0.106,-0.0445,0.008,-0.2975,0.1105
-0.143,-0.852,-0.709,0.4975,0.283,-0.7805,-0.308,-0.041,-0.2865,-0.2855,-0.0965,-0.042,0.0115,-0.2965,0.0985
-0.1575,-0.8805,-0.723,0.519,0.283,-0.802,-0.294,-0.0235,-0.268,-0.2735,-0.093,-0.048,0.0165,-0.306,0.0855
-0.1485,-0.875,-0.7265,0.512,0.289,-0.801,-0.277,-0.0015,-0.244,-0.251,-0.0825,-0.045,0.023,-0.3165,0.071
-0.141,-0.8635,-0.7225,0.5025,0.291,-0.793,-0.2625,0.018,-0.227,-0.235,-0.0695,-0.036,0.0315,-0.337,0.068
-0.1385,-0.8675,-0.729,0.5035,0.2955,-0.7985,-0.2715,0.013,-0.235,-0.2405,-0.0785,-0.047,0.033,-0.33,0.0665
-0.164,-0.873,-0.709,0.519,0.2725,-0.791,-0.2775,0.0085,-0.239,-0.241,-0.0845,-0.059,0.028,-0.31,0.059
-0.164,-0.8745,-0.7105,0.5195,0.273,-0.7925,-0.2715,0.018,-0.2315,-0.23,-0.0765,-0.0595,0.029,-0.327,0.0555
-0.143,-0.8795,-0.736,0.5115,0.2965,-0.808,-0.258,0.031,-0.2195,-0.214,-0.069,-0.0495,0.0345,-0.343,0.0495
-0.146,-0.891,-0.7445,0.519,0.299,-0.818,-0.2475,0.0405,-0.209,-0.2035,-0.063,-0.044,0.0385,-0.3445,0.043
-0.142,-0.8845,-0.7425,0.5135,0.3005,-0.814,-0.2475,0.0475,-0.198,-0.1915,-0.0545,-0.038,0.0435,-0.346,0.0345
-0.136,-0.881,-0.745,0.5085,0.3045,-0.8135,-0.2415,0.056,-0.186,-0.1805,-0.047,-0.033,0.0485,-0.3475,0.027
-0.1245,-0.876,-0.751,0.5005,0.3135,-0.8135,-0.2305,0.0645,-0.1765,-0.17,-0.0335,-0.022,0.0585,-0.3455,0.0225
-0.1205,-0.8745,-0.7535,0.4975,0.3165,-0.8145,-0.226,0.0705,-0.1685,-0.1615,-0.0315,-0.0195,0.0565,-0.3475,0.021
-0.132,-0.8895,-0.758,0.511,0.313,-0.824,-0.23,0.069,-0.168,-0.1655,-0.0385,-0.0275,0.0565,-0.358,0.0235
-0.168,-0.9115,-0.7435,0.54,0.2875,-0.828,-0.226,0.0715,-0.165,-0.1625,-0.0385,-0.0285,0.0635,-0.364,0.0165
-0.163,-0.923,-0.7595,0.5435,0.298,-0.8415,-0.2335,0.074,-0.1635,-0.164,-0.0445,-0.034,0.063,-0.363,0.0125
-0.144,-0.9175,-0.7735,0.531,0.3145,-0.8455,-0.2365,0.072,-0.165,-0.1705,-0.047,-0.0365,0.063,-0.363,0.0135
-0.157,-0.8995,-0.7425,0.5285,0.293,-0.8215,-0.234,0.071,-0.1705,-0.1745,-0.053,-0.044,0.0575,-0.354,0.0105
-0.1745,-0.8985,-0.724,0.537,0.275,-0.812,-0.239,0.08,-0.1645,-0.176,-0.051,-0.044,0.0565,-0.3545,0.012
-0.1765,-0.9165,-0.74,0.5465,0.282,-0.8285,-0.237,0.0915,-0.1545,-0.172,-0.046,-0.04,0.0595,-0.363,0.015
-0.166,-0.9115,-0.745,0.539,0.2895,-0.8285,-0.231,0.101,-0.1495,-0.164,-0.0435,-0.0405,0.057,-0.368,0.0115
-0.169,-0.9055,-0.7365,0.5375,0.284,-0.8215,-0.227,0.107,-0.1455,-0.1585,-0.039,-0.0395,0.0575,-0.37,0.0065
-0.1465,-0.903,-0.7565,0.525,0.305,-0.83,-0.227,0.1065,-0.148,-0.167,-0.056,-0.0555,0.0495,-0.37,0.007
-0.139,-0.8875,-0.748,0.5135,0.3045,-0.818,-0.2185,0.1145,-0.1395,-0.1615,-0.053,-0.048,0.049,-0.364,0.01
-0.1515,-0.8875,-0.736,0.5195,0.292,-0.812,-0.21,0.1235,-0.13,-0.151,-0.041,-0.036,0.054,-0.371,0.013
-0.147,-0.8985,-0.7515,0.523,0.3025,-0.825,-0.2135,0.121,-0.1315,-0.153,-0.043,-0.0405,0.0575,-0.3885,0.012
-0.1505,-0.907,-0.7565,0.529,0.303,-0.832,-0.223,0.112,-0.14,-0.1615,-0.05,-0.0445,0.0595,-0.3855,0.007
-0.1445,-0.92,-0.776,0.5325,0.3155,-0.848,-0.2255,0.109,-0.1445,-0.1675,-0.056,-0.05,0.0585,-0.3925,0.0085
-0.147,-0.923,-0.776,0.535,0.3145,-0.85,-0.2215,0.112,-0.14,-0.164,-0.05,-0.044,0.0615,-0.3865,0.01
-0.148,-0.9125,-0.7645,0.53,0.3085,-0.8385,-0.2155,0.1185,-0.1325,-0.1575,-0.044,-0.0355,0.063,-0.3755,0.0075
-0.131,-0.913,-0.7815,0.522,0.325,-0.8475,-0.2165,0.1165,-0.133,-0.1585,-0.048,-0.038,0.065,-0.397,0.0105
-0.1345,-0.9305,-0.7965,0.5325,0.3315,-0.864,-0.22,0.1135,-0.143,-0.17,-0.0585,-0.0505,0.0615,-0.4095,0.016
-0.136,-0.943,-0.807,0.54,0.3355,-0.875,-0.2235,0.116,-0.144,-0.169,-0.0595,-0.0495,0.0625,-0.405,0.017
-0.148,-0.936,-0.788,0.542,0.32,-0.862,-0.218,0.113,-0.145,-0.173,-0.0645,-0.054,0.0545,-0.3965,0.0155
-0.133,-0.913,-0.7805,0.523,0.324,-0.847,-0.2205,0.108,-0.1485,-0.182,-0.0765,-0.0675,0.048,-0.3855,0.018
-0.1435,-0.9075,-0.7635,0.5255,0.31,-0.8355,-0.2175,0.117,-0.14,-0.1755,-0.0705,-0.0605,0.051,-0.3895,0.0185
-0.187,-0.92,-0.7325,0.554,0.2725,-0.8265,-0.2065,0.1245,-0.139,-0.176,-0.0685,-0.059,0.0415,-0.3965,0.0145
-0.1775,-0.9255,-0.748,0.552,0.2855,-0.837,-0.222,0.113,-0.152,-0.189,-0.081,-0.0705,0.037,-0.388,0.0105
-0.1555,-0.921,-0.766,0.5385,0.3055,-0.844,-0.2205,0.111,-0.1525,-0.192,-0.081,-0.07,0.0335,-0.389,0.008
-0.1355,-0.922,-0.787,0.5295,0.3255,-0.855,-0.2055,0.119,-0.146,-0.1865,-0.0765,-0.0675,0.0285,-0.4025,0.0075
-0.1355,-0.937,-0.8015,0.5365,0.333,-0.8695,-0.2125,0.1155,-0.15,-0.1895,-0.0805,-0.0735,0.0285,-0.4085,0.006
-0.1515,-0.9545,-0.8035,0.5535,0.326,-0.879,-0.225,0.106,-0.1595,-0.196,-0.0895,-0.0785,0.032,-0.4135,0.01
-0.17,-0.9635,-0.7935,0.567,0.3115,-0.8785,-0.215,0.107,-0.159,-0.1965,-0.0925,-0.079,0.031,-0.419,0.0125
-0.1675,-0.952,-0.784,0.56,0.3085,-0.8685,-0.2025,0.1175,-0.1475,-0.1865,-0.0845,-0.072,0.0265,-0.416,0.011
-0.158,-0.95,-0.792,0.554,0.317,-0.871,-0.207,0.124,-0.144,-0.1785,-0.0805,-0.0675,0.0295,-0.411,0.0105
-0.1805,-0.965,-0.784,0.573,0.3015,-0.875,-0.2035,0.1225,-0.1465,-0.181,-0.083,-0.0725,0.027,-0.4065,0.01
-0.1995,-0.97,-0.77,0.585,0.2855,-0.87,-0.206,0.119,-0.1505,-0.1855,-0.089,-0.083,0.0175,-0.409,0.0095
-0.1885,-0.9645,-0.776,0.577,0.2935,-0.8705,-0.208,0.117,-0.153,-0.1885,-0.095,-0.093,0.0145,-0.414,0.0145
-0.19,-0.9655,-0.7755,0.578,0.293,-0.8705,-0.2065,0.114,-0.152,-0.1915,-0.0995,-0.0985,0.0125,-0.4135,0.0165
-0.1805,-0.953,-0.773,0.567,0.296,-0.863,-0.2095,0.117,-0.1495,-0.1905,-0.096,-0.0965,0.0105,-0.4125,0.013
-0.164,-0.9375,-0.7735,0.551,0.305,-0.856,-0.208,0.1225,-0.1455,-0.1865,-0.091,-0.094,0.013,-0.4065,0.014
-0.163,-0.9445,-0.781,0.554,0.309,-0.863,-0.2095,0.1235,-0.144,-0.1845,-0.0905,-0.0935,0.0125,-0.409,0.015
-0.1325,-0.9435,-0.811,0.538,0.3395,-0.8775,-0.2075,0.1215,-0.1455,-0.188,-0.0915,-0.0945,0.0145,-0.4245,0.02
-0.145,-0.9535,-0.809,0.5495,0.332,-0.8815,-0.206,0.1205,-0.1475,-0.191,-0.098,-0.1005,0.015,-0.419,0.0175
-0.179,-0.9725,-0.7935,0.576,0.3075,-0.8835,-0.206,0.1205,-0.1485,-0.191,-0.098,-0.098,0.0145,-0.4125,0.016
-0.182,-0.976,-0.794,0.579,0.306,-0.8855,-0.2015,0.122,-0.149,-0.1945,-0.0985,-0.097,0.0125,-0.4245,0.021
-0.1895,-0.982,-0.7925,0.586,0.3015,-0.8875,-0.202,0.12,-0.152,-0.1965,-0.1045,-0.1015,0.01,-0.4265,0.0185
-0.1865,-0.9765,-0.7905,0.5815,0.302,-0.8835,-0.207,0.1115,-0.1615,-0.206,-0.1185,-0.1135,0.007,-0.4245,0.0215
-0.1775,-0.957,-0.7795,0.5675,0.301,-0.8685,-0.2095,0.113,-0.1605,-0.2095,-0.1205,-0.113,0.0135,-0.4175,0.025
-0.177,-0.9415,-0.7645,0.5595,0.2935,-0.853,-0.2095,0.114,-0.156,-0.2045,-0.114,-0.101,0.02,-0.408,0.0195
-0.1775,-0.9435,-0.766,0.5605,0.2945,-0.855,-0.208,0.1165,-0.1555,-0.2065,-0.1245,-0.114,0.008,-0.4115,0.022
-0.18,-0.9685,-0.7885,0.5745,0.3045,-0.8785,-0.203,0.124,-0.148,-0.2035,-0.1245,-0.118,0.002,-0.4245,0.023
-0.1915,-0.9885,-0.797,0.5905,0.303,-0.893,-0.198,0.1285,-0.143,-0.199,-0.119,-0.1105,0.003,-0.4395,0.022
-0.2025,-1.0025,-0.8,0.6025,0.2985,-0.9015,-0.1985,0.123,-0.151,-0.2065,-0.127,-0.119,0.0035,-0.444,0.0295
-0.1925,-1.0015,-0.8085,0.597,0.308,-0.9055,-0.201,0.1175,-0.155,-0.2105,-0.1345,-0.1285,0.002,-0.4415,0.0285
-0.174,-0.9915,-0.8175,0.583,0.3215,-0.9045,-0.2035,0.116,-0.158,-0.2125,-0.139,-0.133,-0.0015,-0.439,0.019
-0.192,-1.007,-0.815,0.5995,0.3115,-0.911,-0.206,0.1085,-0.1675,-0.2285,-0.1515,-0.146,-0.0085,-0.4365,0.02
-0.1725,-0.98,-0.807,0.5765,0.3175,-0.894,-0.1895,0.1245,-0.153,-0.2175,-0.142,-0.139,-0.012,-0.438,0.0225
-0.1595,-0.966,-0.8065,0.563,0.3235,-0.8865,-0.188,0.128,-0.1485,-0.215,-0.139,-0.136,-0.0105,-0.4275,0.024
-0.1885,-1.0025,-0.814,0.596,0.313,-0.9085,-0.203,0.1125,-0.1635,-0.2345,-0.158,-0.155,-0.0165,-0.428,0.0245
-0.1835,-1.011,-0.8275,0.5975,0.322,-0.919,-0.202,0.1135,-0.1645,-0.239,-0.1605,-0.157,-0.019,-0.446,0.0245
-0.176,-1.007,-0.831,0.5915,0.3275,-0.919,-0.197,0.117,-0.163,-0.2365,-0.1585,-0.157,-0.0205,-0.4535,0.0265
-0.1885,-0.999,-0.8105,0.594,0.311,-0.905,-0.1895,0.123,-0.158,-0.2315,-0.1545,-0.155,-0.0255,-0.45,0.025
-0.2185,-1.004,-0.7855,0.6115,0.2835,-0.895,-0.1795,0.1275,-0.158,-0.2385,-0.157,-0.1545,-0.032,-0.4455,0.024
-0.2235,-1.0035,-0.78,0.614,0.2785,-0.892,-0.178,0.1275,-0.1585,-0.24,-0.158,-0.155,-0.0325,-0.449,0.023
-0.216,-0.9975,-0.782,0.607,0.283,-0.89,-0.1765,0.1325,-0.1555,-0.2355,-0.1555,-0.1505,-0.032,-0.459,0.026
-0.2235,-1.0075,-0.7835,0.6155,0.28,-0.8955,-0.171,0.134,-0.1595,-0.2395,-0.1615,-0.1555,-0.037,-0.4645,0.0275
-0.2375,-1.0185,-0.781,0.628,0.272,-0.9,-0.1795,0.1265,-0.1695,-0.2515,-0.1705,-0.16,-0.0375,-0.4565,0.025
-0.245,-1.0325,-0.7875,0.639,0.2715,-0.91,-0.19,0.1155,-0.1855,-0.2675,-0.1835,-0.167,-0.0415,-0.457,0.0255
-0.2295,-1.0255,-0.796,0.6275,0.2835,-0.911,-0.1905,0.114,-0.188,-0.2665,-0.185,-0.165,-0.0425,-0.4615,0.027
-0.1925,-0.993,-0.801,0.593,0.3045,-0.8975,-0.182,0.119,-0.183,-0.262,-0.1815,-0.1585,-0.0425,-0.46,0.0255
-0.179,-0.9855,-0.8065,0.5825,0.314,-0.896,-0.1865,0.1175,-0.1845,-0.2615,-0.182,-0.161,-0.0415,-0.456,0.027
-0.1995,-1.0005,-0.801,0.6,0.301,-0.901,-0.1915,0.1125,-0.184,-0.261,-0.182,-0.1615,-0.0385,-0.4555,0.03
-0.2,-1.004,-0.804,0.602,0.302,-0.904,-0.1865,0.1145,-0.1805,-0.2645,-0.1855,-0.1645,-0.042,-0.4615,0.0305
-0.188,-1.0045,-0.816,0.5965,0.314,-0.9105,-0.1895,0.1195,-0.172,-0.261,-0.1835,-0.1625,-0.042,-0.4575,0.0305
-0.189,-1.011,-0.822,0.6005,0.3165,-0.9165,-0.1875,0.115,-0.174,-0.2585,-0.1825,-0.163,-0.0395,-0.459,0.0285
-0.2015,-1.022,-0.8205,0.612,0.3095,-0.9215,-0.1795,0.118,-0.1715,-0.25,-0.177,-0.156,-0.0345,-0.4705,0.029
-0.1955,-1.029,-0.834,0.6125,0.319,-0.932,-0.18,0.118,-0.174,-0.251,-0.184,-0.164,-0.039,-0.4635,0.0325
-0.1795,-1.02,-0.8405,0.6,0.3305,-0.9305,-0.176,0.1145,-0.18,-0.2595,-0.192,-0.1725,-0.043,-0.464,0.034
-0.187,-1.014,-0.827,0.601,0.32,-0.921,-0.162,0.1225,-0.1725,-0.253,-0.187,-0.166,-0.0435,-0.462,0.0315
-0.2035,-1.0265,-0.823,0.6155,0.3095,-0.925,-0.175,0.1155,-0.1795,-0.257,-0.1935,-0.1745,-0.046,-0.452,0.032
-0.2185,-1.034,-0.8155,0.6265,0.2985,-0.925,-0.178,0.1135,-0.1815,-0.257,-0.1935,-0.175,-0.0425,-0.459,0.0365
-0.2155,-1.028,-0.8125,0.622,0.2985,-0.9205,-0.1725,0.1155,-0.1795,-0.258,-0.1905,-0.174,-0.0435,-0.464,0.0395
-0.209,-1.0285,-0.8195,0.619,0.3055,-0.9245,-0.176,0.109,-0.1865,-0.266,-0.1975,-0.179,-0.0445,-0.4715,0.0395
-0.2115,-1.0355,-0.8245,0.6235,0.3065,-0.93,-0.176,0.108,-0.1845,-0.2705,-0.202,-0.182,-0.0485,-0.4765,0.038
-0.2205,-1.049,-0.8285,0.635,0.304,-0.939,-0.1765,0.1095,-0.183,-0.2715,-0.2,-0.181,-0.053,-0.493,0.0365
-0.237,-1.0575,-0.821,0.6475,0.292,-0.94,-0.1705,0.1125,-0.1825,-0.274,-0.2015,-0.1815,-0.056,-0.4885,0.0345
-0.247,-1.055,-0.808,0.6515,0.2805,-0.932,-0.166,0.1175,-0.1795,-0.2765,-0.201,-0.182,-0.058,-0.479,0.0355
-0.234,-1.041,-0.8075,0.638,0.2865,-0.9245,-0.156,0.1265,-0.173,-0.273,-0.196,-0.1795,-0.063,-0.4915,0.0355
-0.2215,-1.0255,-0.804,0.624,0.291,-0.915,-0.15,0.1325,-0.17,-0.274,-0.191,-0.175,-0.065,-0.491,0.0345
-0.2355,-1.0435,-0.8085,0.6395,0.2865,-0.926,-0.16,0.121,-0.189,-0.295,-0.206,-0.1885,-0.07,-0.489,0.033
-0.2495,-1.068,-0.819,0.659,0.2845,-0.9435,-0.1735,0.1065,-0.2075,-0.317,-0.228,-0.2115,-0.0805,-0.4805,0.0325
-0.2505,-1.056,-0.8055,0.6535,0.2775,-0.931,-0.1695,0.1115,-0.2045,-0.3155,-0.2265,-0.212,-0.0875,-0.476,0.032
-0.2375,-1.04,-0.802,0.639,0.282,-0.921,-0.1685,0.108,-0.21,-0.3185,-0.2345,-0.219,-0.092,-0.4825,0.033
-0.2495,-1.038,-0.7885,0.644,0.2695,-0.9135,-0.1625,0.1065,-0.2135,-0.3185,-0.2365,-0.2225,-0.0955,-0.484,0.0365
-0.2565,-1.036,-0.7795,0.6465,0.2615,-0.908,-0.1585,0.1125,-0.213,-0.314,-0.238,-0.2235,-0.103,-0.4845,0.038
-0.237,-1.0435,-0.8065,0.6405,0.2845,-0.9255,-0.172,0.102,-0.2205,-0.3195,-0.2465,-0.2325,-0.1,-0.492,0.0435
-0.238,-1.043,-0.805,0.6405,0.2835,-0.924,-0.1655,0.098,-0.22,-0.3125,-0.237,-0.2255,-0.096,-0.4875,0.042
-0.2455,-1.0395,-0.7935,0.643,0.274,-0.917,-0.161,0.099,-0.221,-0.3145,-0.249,-0.238,-0.1075,-0.483,0.0405
-0.237,-1.0345,-0.797,0.636,0.28,-0.916,-0.157,0.1055,-0.2105,-0.311,-0.25,-0.235,-0.107,-0.4855,0.0425
-0.228,-1.0355,-0.8075,0.6325,0.2895,-0.922,-0.15,0.1105,-0.205,-0.304,-0.2385,-0.222,-0.0995,-0.489,0.0425
-0.2125,-1.044,-0.8315,0.6285,0.3095,-0.938,-0.1535,0.105,-0.2125,-0.311,-0.2455,-0.229,-0.1,-0.495,0.0445
-0.202,-1.0525,-0.8505,0.6275,0.3245,-0.9515,-0.1585,0.0995,-0.2175,-0.316,-0.2545,-0.2385,-0.103,-0.499,0.045
-0.2205,-1.0625,-0.842,0.6415,0.3105,-0.9525,-0.1495,0.1005,-0.218,-0.3185,-0.2575,-0.242,-0.1055,-0.5065,0.0505
-0.24,-1.0585,-0.8185,0.6495,0.2895,-0.939,-0.145,0.099,-0.219,-0.3205,-0.2555,-0.2365,-0.1075,-0.496,0.047
-0.2255,-1.062,-0.8365,0.644,0.3055,-0.9495,-0.162,0.09,-0.233,-0.3345,-0.2695,-0.247,-0.1105,-0.496,0.0455
-0.228,-1.072,-0.8435,0.65,0.3075,-0.958,-0.162,0.0825,-0.241,-0.3465,-0.2785,-0.256,-0.11,-0.5035,0.0535
-0.25,-1.0765,-0.8265,0.6635,0.288,-0.9515,-0.1565,0.0805,-0.2465,-0.3535,-0.284,-0.2615,-0.112,-0.5015,0.052
-0.237,-1.075,-0.8375,0.6565,0.3,-0.9565,-0.156,0.0885,-0.237,-0.346,-0.2795,-0.2575,-0.1075,-0.5125,0.0515
-0.2475,-1.0795,-0.8325,0.6635,0.2925,-0.956,-0.1475,0.0965,-0.227,-0.34,-0.2735,-0.248,-0.1105,-0.5155,0.053
-0.257,-1.0755,-0.8185,0.6665,0.2805,-0.947,-0.1445,0.096,-0.232,-0.3465,-0.281,-0.252,-0.1215,-0.5045,0.0525
-0.2685,-1.0765,-0.8075,0.6725,0.2695,-0.942,-0.14,0.0915,-0.2365,-0.348,-0.2815,-0.255,-0.122,-0.501,0.052
-0.2705,-1.077,-0.8065,0.674,0.268,-0.942,-0.142,0.0945,-0.24,-0.3525,-0.2805,-0.2535,-0.122,-0.5015,0.0495
-0.259,-1.0665,-0.8075,0.663,0.274,-0.9375,-0.1345,0.1005,-0.2375,-0.353,-0.2815,-0.2545,-0.128,-0.5,0.05
-0.2595,-1.069,-0.8095,0.664,0.275,-0.9395,-0.1275,0.0985,-0.239,-0.3525,-0.2815,-0.2545,-0.1305,-0.5075,0.0475
-0.248,-1.0775,-0.8295,0.663,0.291,-0.954,-0.1355,0.09,-0.2465,-0.3585,-0.2885,-0.2575,-0.126,-0.518,0.049
-0.2615,-1.094,-0.832,0.678,0.2855,-0.9635,-0.148,0.0825,-0.2555,-0.368,-0.3,-0.267,-0.129,-0.5235,0.054
-0.2805,-1.0995,-0.819,0.69,0.2695,-0.9595,-0.153,0.0835,-0.255,-0.369,-0.3005,-0.2685,-0.132,-0.514,0.0505
-0.2615,-1.088,-0.827,0.675,0.2825,-0.958,-0.144,0.0885,-0.248,-0.3665,-0.2975,-0.267,-0.1365,-0.5195,0.0485
-0.238,-1.0855,-0.8475,0.662,0.3045,-0.967,-0.1475,0.0865,-0.2515,-0.369,-0.3005,-0.269,-0.135,-0.529,0.0495
-0.2645,-1.0965,-0.832,0.681,0.2835,-0.9645,-0.147,0.0855,-0.256,-0.373,-0.305,-0.275,-0.143,-0.5135,0.053
-0.273,-1.1045,-0.831,0.689,0.279,-0.968,-0.1445,0.082,-0.2615,-0.383,-0.3125,-0.282,-0.1505,-0.5095,0.056
-0.27,-1.115,-0.845,0.6925,0.2875,-0.9805,-0.146,0.079,-0.2685,-0.389,-0.316,-0.2835,-0.1465,-0.5245,0.0595
-0.2685,-1.108,-0.8395,0.6885,0.2855,-0.974,-0.1375,0.09,-0.261,-0.382,-0.3105,-0.279,-0.149,-0.5345,0.06
-0.2545,-1.093,-0.8385,0.674,0.292,-0.966,-0.135,0.0945,-0.2585,-0.3835,-0.311,-0.28,-0.149,-0.5285,0.06
-0.267,-1.1035,-0.836,0.6855,0.2845,-0.97,-0.138,0.09,-0.2645,-0.392,-0.32,-0.285,-0.154,-0.5355,0.0645
-0.2805,-1.109,-0.8285,0.695,0.274,-0.9685,-0.1355,0.088,-0.269,-0.396,-0.3235,-0.29,-0.1595,-0.537,0.0635
-0.28,-1.105,-0.825,0.6925,0.2725,-0.965,-0.125,0.089,-0.271,-0.3955,-0.3245,-0.294,-0.1655,-0.537,0.0575
-0.2655,-1.098,-0.8325,0.682,0.2835,-0.9655,-0.1215,0.0915,-0.268,-0.3895,-0.3215,-0.2915,-0.1665,-0.551,0.0565
-0.2485,-1.1015,-0.853,0.6755,0.3025,-0.978,-0.132,0.0835,-0.275,-0.395,-0.3265,-0.298,-0.1665,-0.543,0.0585
-0.236,-1.102,-0.8665,0.669,0.315,-0.9845,-0.134,0.0765,-0.2815,-0.401,-0.332,-0.304,-0.1695,-0.5415,0.06
-0.243,-1.1035,-0.861,0.6735,0.309,-0.9825,-0.129,0.0795,-0.28,-0.399,-0.33,-0.301,-0.1685,-0.532,0.06
-0.254,-1.117,-0.863,0.686,0.3045,-0.99,-0.1285,0.077,-0.2855,-0.4035,-0.3335,-0.3,-0.1685,-0.526,0.0585
-0.2565,-1.1175,-0.861,0.687,0.3025,-0.9895,-0.129,0.0715,-0.293,-0.4115,-0.3435,-0.307,-0.1755,-0.5325,0.061
-0.26,-1.12,-0.86,0.69,0.3,-0.99,-0.128,0.0745,-0.2915,-0.4075,-0.342,-0.3085,-0.1785,-0.5395,0.0625
-0.276,-1.112,-0.8355,0.694,0.2795,-0.974,-0.1205,0.0745,-0.293,-0.4085,-0.339,-0.301,-0.176,-0.5425,0.065
-0.287,-1.099,-0.8125,0.6935,0.263,-0.956,-0.1255,0.07,-0.299,-0.418,-0.345,-0.301,-0.1755,-0.532,0.0665
-0.2775,-1.0995,-0.822,0.6885,0.2725,-0.961,-0.121,0.071,-0.3005,-0.421,-0.353,-0.3105,-0.181,-0.5355,0.066
-0.2695,-1.1055,-0.836,0.6875,0.2835,-0.9705,-0.114,0.0695,-0.3,-0.4215,-0.3555,-0.313,-0.185,-0.5325,0.0635
-0.26,-1.1,-0.84,0.68,0.2905,-0.9705,-0.1105,0.0725,-0.293,-0.4145,-0.346,-0.3025,-0.183,-0.53,0.0575
-0.265,-1.1065,-0.8415,0.686,0.2885,-0.9745,-0.112,0.0705,-0.3,-0.423,-0.352,-0.303,-0.186,-0.5325,0.0635
-0.285,-1.131,-0.846,0.7085,0.2805,-0.989,-0.1225,0.063,-0.313,-0.442,-0.3675,-0.314,-0.191,-0.538,0.07
-0.275,-1.1225,-0.8475,0.6995,0.286,-0.9855,-0.123,0.059,-0.3135,-0.443,-0.3665,-0.318,-0.194,-0.541,0.064
-0.2625,-1.116,-0.8535,0.6895,0.2955,-0.985,-0.1345,0.061,-0.31,-0.439,-0.361,-0.317,-0.1925,-0.544,0.0635
-0.295,-1.1245,-0.8295,0.71,0.267,-0.9775,-0.1245,0.07,-0.3035,-0.4345,-0.358,-0.316,-0.196,-0.5425,0.064
-0.3075,-1.1255,-0.8185,0.717,0.2555,-0.9725,-0.115,0.068,-0.3045,-0.4345,-0.3585,-0.317,-0.1995,-0.5455,0.0625
-0.3075,-1.1205,-0.813,0.714,0.253,-0.967,-0.1165,0.066,-0.3065,-0.4355,-0.3545,-0.3145,-0.1995,-0.5545,0.0615
-0.3125,-1.123,-0.8105,0.718,0.249,-0.967,-0.1125,0.0615,-0.31,-0.435,-0.355,-0.3195,-0.202,-0.547,0.0605
-0.271,-1.1175,-0.8465,0.6945,0.288,-0.982,-0.123,0.0545,-0.319,-0.4485,-0.3725,-0.333,-0.2075,-0.549,0.062
-0.261,-1.108,-0.847,0.6845,0.2935,-0.978,-0.114,0.0625,-0.314,-0.4465,-0.374,-0.329,-0.211,-0.549,0.063
-0.2765,-1.113,-0.8365,0.695,0.28,-0.975,-0.111,0.0665,-0.31,-0.437,-0.3665,-0.3275,-0.208,-0.547,0.0645
-0.2695,-1.1095,-0.8395,0.6895,0.285,-0.975,-0.12,0.06,-0.3165,-0.442,-0.3735,-0.3335,-0.2065,-0.546,0.0635
-0.276,-1.1195,-0.843,0.698,0.2835,-0.9815,-0.1105,0.0565,-0.322,-0.4455,-0.379,-0.3365,-0.205,-0.5505,0.065
-0.285,-1.1255,-0.8405,0.7055,0.2775,-0.9835,-0.1145,0.056,-0.326,-0.4475,-0.3805,-0.3405,-0.206,-0.5515,0.065
-0.2905,-1.1265,-0.836,0.7085,0.273,-0.9815,-0.12,0.054,-0.3265,-0.4465,-0.374,-0.332,-0.201,-0.5485,0.065
-0.29,-1.1315,-0.8415,0.711,0.2755,-0.987,-0.1165,0.0515,-0.3255,-0.447,-0.371,-0.327,-0.1945,-0.557,0.0675
-0.2825,-1.124,-0.8415,0.7035,0.279,-0.983,-0.1105,0.058,-0.3195,-0.438,-0.3705,-0.3275,-0.1975,-0.563,0.067
-0.275,-1.1255,-0.8505,0.7005,0.2875,-0.988,-0.1065,0.059,-0.3195,-0.438,-0.3665,-0.3295,-0.198,-0.565,0.0695
-0.288,-1.139,-0.851,0.7135,0.2815,-0.995,-0.116,0.053,-0.3245,-0.446,-0.3705,-0.3365,-0.197,-0.568,0.0675
-0.29,-1.1275,-0.8375,0.709,0.2735,-0.983,-0.112,0.0555,-0.321,-0.4415,-0.3675,-0.335,-0.1975,-0.5545,0.065
-0.281,-1.123,-0.8425,0.702,0.2805,-0.983,-0.1125,0.0515,-0.3225,-0.446,-0.37,-0.339,-0.2005,-0.5475,0.068
-0.285,-1.1265,-0.842,0.706,0.2785,-0.9845,-0.117,0.051,-0.3245,-0.45,-0.376,-0.3435,-0.2025,-0.548,0.0655
-0.2735,-1.112,-0.8385,0.693,0.2825,-0.9755,-0.1075,0.058,-0.32,-0.4465,-0.3705,-0.3385,-0.203,-0.5405,0.0635
-0.2655,-1.119,-0.8535,0.6925,0.294,-0.9865,-0.1045,0.059,-0.3185,-0.442,-0.366,-0.33,-0.1985,-0.552,0.063
-0.2705,-1.128,-0.8575,0.6995,0.2935,-0.993,-0.105,0.0585,-0.32,-0.445,-0.367,-0.326,-0.1975,-0.556,0.0645
-0.283,-1.132,-0.849,0.708,0.283,-0.991,-0.105,0.0585,-0.3195,-0.444,-0.36,-0.316,-0.194,-0.543,0.0675
-0.288,-1.1395,-0.851,0.714,0.2815,-0.9955,-0.107,0.057,-0.3195,-0.4415,-0.3605,-0.311,-0.19,-0.542,0.0675
-0.289,-1.148,-0.8585,0.719,0.2845,-1.0035,-0.111,0.052,-0.3265,-0.4535,-0.372,-0.323,-0.1925,-0.553,0.0695
-0.284,-1.151,-0.8675,0.718,0.2915,-1.0095,-0.1125,0.051,-0.327,-0.459,-0.377,-0.3285,-0.192,-0.5545,0.072
-0.275,-1.1435,-0.869,0.7095,0.297,-1.0065,-0.1095,0.0495,-0.3245,-0.4585,-0.3805,-0.329,-0.196,-0.553,0.071
-0.2765,-1.146,-0.8695,0.7115,0.2965,-1.008,-0.112,0.046,-0.3285,-0.4595,-0.3805,-0.3285,-0.1965,-0.551,0.0715
-0.2905,-1.1595,-0.869,0.7255,0.289,-1.0145,-0.1125,0.0465,-0.3295,-0.456,-0.3785,-0.327,-0.1925,-0.553,0.0705
-0.305,-1.1535,-0.8485,0.7295,0.272,-1.0015,-0.102,0.0565,-0.3195,-0.443,-0.363,-0.312,-0.189,-0.559,0.067
-0.31,-1.143,-0.833,0.7265,0.2615,-0.9885,-0.097,0.062,-0.315,-0.4355,-0.354,-0.305,-0.1895,-0.5485,0.0685
-0.2945,-1.1375,-0.843,0.7165,0.2745,-0.9905,-0.102,0.0535,-0.322,-0.4365,-0.354,-0.3105,-0.1895,-0.5525,0.071
-0.251,-1.107,-0.856,0.6795,0.3025,-0.982,-0.1065,0.0495,-0.3265,-0.438,-0.3535,-0.312,-0.1875,-0.5555,0.072
-0.262,-1.1125,-0.8505,0.6875,0.2945,-0.982,-0.114,0.047,-0.331,-0.439,-0.351,-0.3105,-0.1845,-0.5485,0.0685
-0.2895,-1.1455,-0.8555,0.718,0.283,-1.001,-0.117,0.0405,-0.3385,-0.4405,-0.3525,-0.315,-0.1845,-0.555,0.0645
-0.279,-1.144,-0.8655,0.7115,0.293,-1.005,-0.114,0.041,-0.338,-0.439,-0.357,-0.3185,-0.188,-0.5535,0.0645
-0.275,-1.1315,-0.8565,0.7035,0.2905,-0.994,-0.1035,0.0485,-0.3285,-0.4305,-0.3455,-0.3095,-0.185,-0.546,0.062
-0.2795,-1.131,-0.8515,0.7055,0.286,-0.9915,-0.101,0.048,-0.3285,-0.43,-0.3415,-0.307,-0.1815,-0.5395,0.0575
-0.283,-1.131,-0.8485,0.707,0.283,-0.99,-0.107,0.046,-0.3245,-0.4235,-0.3355,-0.2995,-0.1755,-0.531,0.055
